1,0.1292736
2,0.12811936
3,0.12696515
4,0.12581094
5,0.12465672
6,0.12465543
7,0.12465543
8,0.12465543
9,0.12465543
10,0.12465543
11,0.12465543
12,0.12465543
13,0.12465543
14,0.12465543
15,0.12465543
16,0.12465543
17,0.12465543
18,0.12465543
19,0.12465543
20,0.12465543
21,0.12465543
22,0.12465543
23,0.12465543
24,0.12465543
25,0.12465543
26,0.12465543
27,0.12465543
28,0.12465543
29,0.12465543
30,0.12465543
31,0.12465543
32,0.12465543
33,0.12580836
34,0.12696257
35,0.12811679
36,0.12927102
37,0.13042523
38,0.13157944
39,0.13273366
40,0.13388787
41,0.13504209
42,0.13619632
43,0.13735053
44,0.13850474
45,0.13965896
46,0.14023736
47,0.14023736
48,0.14023736
49,0.14023736
50,0.14023736
51,0.14023736
52,0.14023736
53,0.14023736
54,0.14023736
55,0.14023736
56,0.14023736
57,0.14023736
58,0.14023736
59,0.14023736
60,0.14023736
61,0.14023736
62,0.14023736
63,0.14023736
64,0.14023736
65,0.14023736
66,0.14023736
67,0.14023736
68,0.14023736
69,0.14023736
70,0.14023736
71,0.14023736
72,0.14023736
73,0.14023736
74,0.14023736
75,0.14023736
76,0.14023736
77,0.14023736
78,0.14023736
79,0.14023736
80,0.14023736
81,0.14023736
82,0.14023736
83,0.14023736
84,0.14023736
85,0.14023736
86,0.14023736
87,0.14023736
88,0.14023736
89,0.14023736
90,0.14023736
91,0.14023736
92,0.14023736
93,0.14023736
94,0.14023736
95,0.14023736
96,0.14023736
97,0.14023736
98,0.14023736
99,0.14023736
100,0.14023736
101,0.14023736
102,0.14023736
103,0.14023736
104,0.14023736
105,0.14023736
106,0.14023736
107,0.14023736
108,0.14023736
109,0.14023736
110,0.14023736
111,0.14023736
112,0.14023736
113,0.14023736
114,0.13908443
115,0.13793021
116,0.136776
117,0.13562179
118,0.13446757
119,0.13331334
120,0.13215913
121,0.13100491
122,0.1298507
123,0.12869649
124,0.12754226
125,0.12638804
126,0.12523383
127,0.12465543
128,0.12465543
129,0.12465543
130,0.12465543
131,0.12465543
132,0.12465543
133,0.12465543
134,0.12465543
135,0.12465543
136,0.12465543
137,0.12465543
138,0.12465543
139,0.12465543
140,0.12465543
141,0.12465543
142,0.12465543
143,0.12465543
144,0.12465543
145,0.12465543
146,0.12465543
147,0.12465543
148,0.12465543
149,0.12465543
150,0.12465543
151,0.12465543
152,0.12465543
153,0.12465543
154,0.12465543
155,0.12465543
156,0.12465543
157,0.12465543
158,0.12465543
159,0.12465543
160,0.12465543
161,0.12465543
162,0.12465543
163,0.12465543
164,0.12465543
165,0.12465543
166,0.12465543
167,0.12465543
168,0.12580836
169,0.12696257
170,0.12811679
171,0.12927102
172,0.13042523
173,0.13157944
174,0.13273366
175,0.13388787
176,0.13504209
177,0.13619632
178,0.13735053
179,0.13850474
180,0.13965896
181,0.13966154
182,0.13850732
183,0.1373531
184,0.1361989
185,0.13504468
186,0.13389045
187,0.13273624
188,0.13158202
189,0.13042781
190,0.1292736
191,0.12811936
192,0.12696515
193,0.12581094
194,0.12465672
195,0.12465543
196,0.12465543
197,0.12465543
198,0.12465543
199,0.12465543
200,0.12465543
201,0.12465543
202,0.12465543
203,0.12465543
204,0.12465543
205,0.12465543
206,0.12465543
207,0.12465543
208,0.12465543
209,0.12465543
210,0.12465543
211,0.12465543
212,0.12465543
213,0.12465543
214,0.12465543
215,0.12465543
216,0.12465543
217,0.12465543
218,0.12465543
219,0.12465543
220,0.12465543
221,0.12465543
222,0.12465543
223,0.12465543
224,0.12465543
225,0.12465543
226,0.12465543
227,0.12465543
228,0.12465543
229,0.12465543
230,0.12465543
231,0.12465543
232,0.12465543
233,0.12465543
234,0.12465543
235,0.12465543
236,0.12465543
237,0.12465543
238,0.12465543
239,0.12465543
240,0.12465543
241,0.12465543
242,0.12465543
243,0.12465543
244,0.12465543
245,0.12465543
246,0.12465543
247,0.12465543
248,0.12465543
249,0.12465543
250,0.12465543
251,0.12465543
252,0.12465543
253,0.12465543
254,0.12465543
255,0.12465543
256,0.12465543
257,0.12465543
258,0.12465543
259,0.12465543
260,0.12465543
261,0.12465543
262,0.12465543
263,0.12465543
264,0.12465543
265,0.12465543
266,0.12465543
267,0.12465543
268,0.12465543
269,0.12465543
270,0.12465543
271,0.12465543
272,0.12465543
273,0.12465543
274,0.12465543
275,0.12465543
276,0.12465543
277,0.12465543
278,0.12465543
279,0.12465543
280,0.12465543
281,0.12465543
282,0.12465543
283,0.12465543
284,0.12465543
285,0.12465543
286,0.12465543
287,0.12465543
288,0.12465543
289,0.12465543
290,0.12465543
291,0.12465543
292,0.12465543
293,0.12465543
294,0.12465543
295,0.12465543
296,0.12465543
297,0.12465543
298,0.12465543
299,0.12465543
300,0.12465543
301,0.12465543
302,0.12465543
303,0.12465543
304,0.12465543
305,0.12465543
306,0.12465543
307,0.12465543
308,0.12465543
309,0.12465543
310,0.12465543
311,0.12465543
312,0.12465543
313,0.12465543
314,0.12465543
315,0.12465543
316,0.12465543
317,0.12465543
318,0.12465543
319,0.12465543
320,0.12465543
321,0.12465543
322,0.12465543
323,0.12465543
324,0.12465543
325,0.12465543
326,0.12465543
327,0.12465543
328,0.12465543
329,0.12465543
330,0.1235025
331,0.12234829
332,0.12119407
333,0.12003986
334,0.11888564
335,0.11773142
336,0.11657721
337,0.11542299
338,0.11426877
339,0.11311456
340,0.11196034
341,0.11080612
342,0.10965191
343,0.10907351
344,0.10907351
345,0.10907351
346,0.10907351
347,0.10907351
348,0.10907351
349,0.10907351
350,0.10907351
351,0.10907351
352,0.10907351
353,0.10907351
354,0.10907351
355,0.10907351
356,0.10907351
357,0.10907351
358,0.10907351
359,0.10907351
360,0.10907351
361,0.10907351
362,0.10907351
363,0.10907351
364,0.10907351
365,0.10907351
366,0.10907351
367,0.10907351
368,0.10907351
369,0.10907351
370,0.11022515
371,0.11253358
372,0.11484201
373,0.11715045
374,0.11945888
375,0.12176731
376,0.12407575
377,0.12638418
378,0.12869261
379,0.13100104
380,0.13330948
381,0.13561791
382,0.13792634
383,0.14023478
384,0.14023736
385,0.14023736
386,0.14023736
387,0.14023736
388,0.14023736
389,0.14023736
390,0.14023736
391,0.14023736
392,0.14023736
393,0.14023736
394,0.14023736
395,0.14023736
396,0.14023736
397,0.14023736
398,0.14023736
399,0.14023736
400,0.14023736
401,0.14023736
402,0.14023736
403,0.14023736
404,0.14023736
405,0.14023736
406,0.14023736
407,0.14023736
408,0.14023736
409,0.14023736
410,0.14023736
411,0.14023736
412,0.14023736
413,0.14023736
414,0.14023736
415,0.14023736
416,0.14023736
417,0.14023736
418,0.14023736
419,0.14023736
420,0.14023736
421,0.14023736
422,0.14023736
423,0.14023736
424,0.14023736
425,0.14023736
426,0.14023736
427,0.14023736
428,0.14023736
429,0.14023736
430,0.14023736
431,0.14023736
432,0.14023736
433,0.14023736
434,0.14023736
435,0.14023736
436,0.14023736
437,0.14023736
438,0.13908443
439,0.13793021
440,0.136776
441,0.13562179
442,0.13446757
443,0.13331334
444,0.13215913
445,0.13100491
446,0.1298507
447,0.12869649
448,0.12754226
449,0.12638804
450,0.12523383
451,0.12465543
452,0.12465543
453,0.12465543
454,0.12465543
455,0.12465543
456,0.12465543
457,0.12465543
458,0.12465543
459,0.12465543
460,0.12465543
461,0.12465543
462,0.12465543
463,0.12465543
464,0.12465543
465,0.12580836
466,0.12696257
467,0.12811679
468,0.12927102
469,0.13042523
470,0.13157944
471,0.13273366
472,0.13388787
473,0.13504209
474,0.13619632
475,0.13735053
476,0.13850474
477,0.13965896
478,0.14023736
479,0.14023736
480,0.14023736
481,0.14023736
482,0.14023736
483,0.14023736
484,0.14023736
485,0.14023736
486,0.14023736
487,0.14023736
488,0.14023736
489,0.14023736
490,0.14023736
491,0.14023736
492,0.13908443
493,0.13793021
494,0.136776
495,0.13562179
496,0.13446757
497,0.13331334
498,0.13215913
499,0.13100491
500,0.1298507
501,0.12869649
502,0.12754226
503,0.12638804
504,0.12523383
505,0.12465543
506,0.12465543
507,0.12465543
508,0.12465543
509,0.12465543
510,0.12465543
511,0.12465543
512,0.12465543
513,0.12465543
514,0.12465543
515,0.12465543
516,0.12465543
517,0.12465543
518,0.12465543
519,0.12465543
520,0.12465543
521,0.12465543
522,0.12465543
523,0.12465543
524,0.12465543
525,0.12465543
526,0.12465543
527,0.12465543
528,0.12465543
529,0.12465543
530,0.12465543
531,0.12465543
532,0.12465543
533,0.12465543
534,0.12465543
535,0.12465543
536,0.12465543
537,0.12465543
538,0.12465543
539,0.12465543
540,0.12465543
541,0.12465543
542,0.12465543
543,0.12465543
544,0.12465543
545,0.12465543
546,0.1235025
547,0.12234829
548,0.12119407
549,0.12003986
550,0.11888564
551,0.11773142
552,0.11657721
553,0.11542299
554,0.11426877
555,0.11311456
556,0.11196034
557,0.11080612
558,0.10965191
559,0.10907351
560,0.10907351
561,0.10907351
562,0.10907351
563,0.10907351
564,0.10907351
565,0.10907351
566,0.10907351
567,0.10907351
568,0.10907351
569,0.10907351
570,0.10907351
571,0.10907351
572,0.10907351
573,0.10907351
574,0.10907351
575,0.10907351
576,0.10907351
577,0.10907351
578,0.10907351
579,0.10907351
580,0.10907351
581,0.10907351
582,0.10907351
583,0.10907351
584,0.10907351
585,0.10907351
586,0.10907351
587,0.10907351
588,0.10907351
589,0.10907351
590,0.10907351
591,0.10907351
592,0.10907351
593,0.10907351
594,0.10907351
595,0.10907351
596,0.10907351
597,0.10907351
598,0.10907351
599,0.10907351
600,0.11022644
601,0.11138065
602,0.11253487
603,0.11368909
604,0.1148433
605,0.11599752
606,0.11715174
607,0.11830595
608,0.11946017
609,0.12061438
610,0.1217686
611,0.12292282
612,0.12407703
613,0.12523125
614,0.12638547
615,0.12753968
616,0.1286939
617,0.12984812
618,0.13100234
619,0.13215655
620,0.13331077
621,0.13446498
622,0.13561921
623,0.13677342
624,0.13792764
625,0.13908185
626,0.14023606
627,0.14023736
628,0.14023736
629,0.14023736
630,0.14023736
631,0.14023736
632,0.14023736
633,0.14023736
634,0.14023736
635,0.14023736
636,0.14023736
637,0.14023736
638,0.14023736
639,0.14023736
640,0.14081317
641,0.1419674
642,0.14312162
643,0.14427583
644,0.14543004
645,0.14658427
646,0.14773849
647,0.1488927
648,0.15004691
649,0.15120114
650,0.15235536
651,0.15350957
652,0.15466379
653,0.15581802
654,0.1558193
655,0.1558193
656,0.1558193
657,0.1558193
658,0.1558193
659,0.1558193
660,0.1558193
661,0.1558193
662,0.1558193
663,0.1558193
664,0.1558193
665,0.1558193
666,0.1558193
667,0.1558193
668,0.1558193
669,0.1558193
670,0.1558193
671,0.1558193
672,0.1558193
673,0.1558193
674,0.1558193
675,0.1558193
676,0.1558193
677,0.1558193
678,0.1558193
679,0.1558193
680,0.1558193
681,0.15466638
682,0.15351215
683,0.15235794
684,0.15120372
685,0.15004951
686,0.14889528
687,0.14774106
688,0.14658685
689,0.14543264
690,0.1442784
691,0.1431242
692,0.14196998
693,0.14081576
694,0.13966154
695,0.13850732
696,0.1373531
697,0.1361989
698,0.13504468
699,0.13389045
700,0.13273624
701,0.13158202
702,0.13042781
703,0.1292736
704,0.12811936
705,0.12696515
706,0.12581094
707,0.12465672
708,0.12465543
709,0.12465543
710,0.12465543
711,0.12465543
712,0.12465543
713,0.12465543
714,0.12465543
715,0.12465543
716,0.12465543
717,0.12465543
718,0.12465543
719,0.12465543
720,0.12465543
721,0.12407962
722,0.12292539
723,0.12177118
724,0.12061697
725,0.11946274
726,0.11830853
727,0.11715432
728,0.1160001
729,0.11484588
730,0.11369167
731,0.11253745
732,0.11138323
733,0.11022902
734,0.1090748
735,0.11022644
736,0.11138065
737,0.11253487
738,0.11368909
739,0.1148433
740,0.11599752
741,0.11715174
742,0.11830595
743,0.11946017
744,0.12061438
745,0.1217686
746,0.12292282
747,0.12407703
748,0.12465543
749,0.12465543
750,0.12465543
751,0.12465543
752,0.12465543
753,0.12465543
754,0.12465543
755,0.12465543
756,0.12465543
757,0.12465543
758,0.12465543
759,0.12465543
760,0.12465543
761,0.12465543
762,0.12465543
763,0.12465543
764,0.12465543
765,0.12465543
766,0.12465543
767,0.12465543
768,0.12465543
769,0.12465543
770,0.12465543
771,0.12465543
772,0.12465543
773,0.12465543
774,0.12465543
775,0.12465543
776,0.12465543
777,0.12465543
778,0.12465543
779,0.12465543
780,0.12465543
781,0.12465543
782,0.12465543
783,0.12465543
784,0.12465543
785,0.12465543
786,0.12465543
787,0.12465543
788,0.12465543
789,0.12465543
790,0.12465543
791,0.12465543
792,0.12465543
793,0.12465543
794,0.12465543
795,0.12465543
796,0.12465543
797,0.12465543
798,0.12465543
799,0.12465543
800,0.12465543
801,0.12465543
802,0.12407962
803,0.12292539
804,0.12177118
805,0.12061697
806,0.11946274
807,0.11830853
808,0.11715432
809,0.1160001
810,0.11484588
811,0.11369167
812,0.11253745
813,0.11138323
814,0.11022902
815,0.1090748
816,0.10907351
817,0.10907351
818,0.10907351
819,0.10907351
820,0.10907351
821,0.10907351
822,0.10907351
823,0.10907351
824,0.10907351
825,0.10907351
826,0.10907351
827,0.10907351
828,0.10907351
829,0.10907351
830,0.10907351
831,0.10907351
832,0.10907351
833,0.10907351
834,0.10907351
835,0.10907351
836,0.10907351
837,0.10907351
838,0.10907351
839,0.10907351
840,0.10907351
841,0.10907351
842,0.10907351
843,0.11022644
844,0.11138065
845,0.11253487
846,0.11368909
847,0.1148433
848,0.11599752
849,0.11715174
850,0.11830595
851,0.11946017
852,0.12061438
853,0.1217686
854,0.12292282
855,0.12407703
856,0.12465543
857,0.12465543
858,0.12465543
859,0.12465543
860,0.12465543
861,0.12465543
862,0.12465543
863,0.12465543
864,0.12465543
865,0.12465543
866,0.12465543
867,0.12465543
868,0.12465543
869,0.12465543
870,0.12465543
871,0.12465543
872,0.12465543
873,0.12465543
874,0.12465543
875,0.12465543
876,0.12465543
877,0.12465543
878,0.12465543
879,0.12465543
880,0.12465543
881,0.12465543
882,0.12465543
883,0.12465543
884,0.12465543
885,0.12465543
886,0.12465543
887,0.12465543
888,0.12465543
889,0.12465543
890,0.12465543
891,0.12465543
892,0.12465543
893,0.12465543
894,0.12465543
895,0.12465543
896,0.12465543
897,0.12465543
898,0.12465543
899,0.12465543
900,0.12465543
901,0.12465543
902,0.12465543
903,0.12465543
904,0.12465543
905,0.12465543
906,0.12465543
907,0.12465543
908,0.12465543
909,0.12465543
910,0.12465543
911,0.12465543
912,0.12465543
913,0.12465543
914,0.12465543
915,0.12465543
916,0.12465543
917,0.12465543
918,0.12465543
919,0.12465543
920,0.12465543
921,0.12465543
922,0.12465543
923,0.12465543
924,0.12465543
925,0.12465543
926,0.12465543
927,0.12465543
928,0.12465543
929,0.12465543
930,0.12465543
931,0.12465543
932,0.12465543
933,0.12465543
934,0.12465543
935,0.12465543
936,0.12465543
937,0.12465543
938,0.12465543
939,0.12465543
940,0.12465543
941,0.12465543
942,0.12465543
943,0.12465543
944,0.12465543
945,0.12465543
946,0.12465543
947,0.12465543
948,0.12465543
949,0.12465543
950,0.12465543
951,0.12580836
952,0.12696257
953,0.12811679
954,0.12927102
955,0.13042523
956,0.13157944
957,0.13273366
958,0.13388787
959,0.13504209
960,0.13619632
961,0.13735053
962,0.13850474
963,0.13965896
964,0.14023736
965,0.14023736
966,0.14023736
967,0.14023736
968,0.14023736
969,0.14023736
970,0.14023736
971,0.14023736
972,0.14023736
973,0.14023736
974,0.14023736
975,0.14023736
976,0.14023736
977,0.14023736
978,0.14023736
979,0.14023736
980,0.14023736
981,0.14023736
982,0.14023736
983,0.14023736
984,0.14023736
985,0.14023736
986,0.14023736
987,0.14023736
988,0.14023736
989,0.14023736
990,0.14023736
991,0.14023736
992,0.14023736
993,0.14023736
994,0.14023736
995,0.14023736
996,0.14023736
997,0.14023736
998,0.14023736
999,0.14023736
1000,0.14023736
1001,0.14023736
1002,0.14023736
1003,0.14023736
1004,0.14023736
1005,0.14023736
1006,0.14023736
1007,0.14023736
1008,0.14023736
1009,0.14023736
1010,0.14023736
1011,0.14023736
1012,0.14023736
1013,0.14023736
1014,0.14023736
1015,0.14023736
1016,0.14023736
1017,0.14023736
1018,0.13966154
1019,0.13850732
1020,0.1373531
1021,0.1361989
1022,0.13504468
1023,0.13389045
1024,0.13273624
1025,0.13158202
1026,0.13042781
1027,0.1292736
1028,0.12811936
1029,0.12696515
1030,0.12581094
1031,0.12465672
1032,0.1235025
1033,0.12234829
1034,0.12119407
1035,0.12003986
1036,0.11888564
1037,0.11773142
1038,0.11657721
1039,0.11542299
1040,0.11426877
1041,0.11311456
1042,0.11196034
1043,0.11080612
1044,0.10965191
1045,0.10849769
1046,0.10734347
1047,0.10618926
1048,0.10503504
1049,0.10388082
1050,0.10272661
1051,0.10157239
1052,0.10041817
1053,0.09926395
1054,0.09810974
1055,0.09695552
1056,0.0958013
1057,0.09464709
1058,0.09349287
1059,0.09349158
1060,0.09349158
1061,0.09349158
1062,0.09349158
1063,0.09349158
1064,0.09349158
1065,0.09349158
1066,0.09349158
1067,0.09349158
1068,0.09349158
1069,0.09349158
1070,0.09349158
1071,0.09349158
1072,0.0940674
1073,0.09522162
1074,0.09637583
1075,0.09753005
1076,0.09868427
1077,0.09983848
1078,0.1009927
1079,0.10214692
1080,0.10330113
1081,0.10445535
1082,0.10560957
1083,0.10676379
1084,0.107918
1085,0.10907222
1086,0.10907351
1087,0.10907351
1088,0.10907351
1089,0.10907351
1090,0.10907351
1091,0.10907351
1092,0.10907351
1093,0.10907351
1094,0.10907351
1095,0.10907351
1096,0.10907351
1097,0.10907351
1098,0.10907351
1099,0.10964933
1100,0.11080355
1101,0.11195776
1102,0.11311198
1103,0.11426619
1104,0.11542041
1105,0.11657462
1106,0.11772884
1107,0.11888306
1108,0.12003727
1109,0.12119149
1110,0.12234571
1111,0.12349992
1112,0.12465414
1113,0.12465543
1114,0.12465543
1115,0.12465543
1116,0.12465543
1117,0.12465543
1118,0.12465543
1119,0.12465543
1120,0.12465543
1121,0.12465543
1122,0.12465543
1123,0.12465543
1124,0.12465543
1125,0.12465543
1126,0.12465543
1127,0.12465543
1128,0.12465543
1129,0.12465543
1130,0.12465543
1131,0.12465543
1132,0.12465543
1133,0.12465543
1134,0.12465543
1135,0.12465543
1136,0.12465543
1137,0.12465543
1138,0.12465543
1139,0.12465543
1140,0.12465543
1141,0.12465543
1142,0.12465543
1143,0.12465543
1144,0.12465543
1145,0.12465543
1146,0.12465543
1147,0.12465543
1148,0.12465543
1149,0.12465543
1150,0.12465543
1151,0.12465543
1152,0.12465543
1153,0.12465543
1154,0.12465543
1155,0.12465543
1156,0.12465543
1157,0.12465543
1158,0.12465543
1159,0.12465543
1160,0.12465543
1161,0.12465543
1162,0.12465543
1163,0.12465543
1164,0.12465543
1165,0.12465543
1166,0.12465543
1167,0.1235025
1168,0.12234829
1169,0.12119407
1170,0.12003986
1171,0.11888564
1172,0.11773142
1173,0.11657721
1174,0.11542299
1175,0.11426877
1176,0.11311456
1177,0.11196034
1178,0.11080612
1179,0.10965191
1180,0.10849769
1181,0.10734347
1182,0.10618926
1183,0.10503504
1184,0.10388082
1185,0.10272661
1186,0.10157239
1187,0.10041817
1188,0.09926395
1189,0.09810974
1190,0.09695552
1191,0.0958013
1192,0.09464709
1193,0.09349287
1194,0.0946445
1195,0.09579872
1196,0.09695294
1197,0.09810716
1198,0.09926137
1199,0.10041559
1200,0.10156981
1201,0.10272402
1202,0.10387825
1203,0.10503246
1204,0.10618668
1205,0.1073409
1206,0.10849511
1207,0.10907351
1208,0.10907351
1209,0.10907351
1210,0.10907351
1211,0.10907351
1212,0.10907351
1213,0.10907351
1214,0.10907351
1215,0.10907351
1216,0.10907351
1217,0.10907351
1218,0.10907351
1219,0.10907351
1220,0.10907351
1221,0.11022644
1222,0.11138065
1223,0.11253487
1224,0.11368909
1225,0.1148433
1226,0.11599752
1227,0.11715174
1228,0.11830595
1229,0.11946017
1230,0.12061438
1231,0.1217686
1232,0.12292282
1233,0.12407703
1234,0.12523125
1235,0.12638547
1236,0.12753968
1237,0.1286939
1238,0.12984812
1239,0.13100234
1240,0.13215655
1241,0.13331077
1242,0.13446498
1243,0.13561921
1244,0.13677342
1245,0.13792764
1246,0.13908185
1247,0.14023606
1248,0.13908443
1249,0.13793021
1250,0.136776
1251,0.13562179
1252,0.13446757
1253,0.13331334
1254,0.13215913
1255,0.13100491
1256,0.1298507
1257,0.12869649
1258,0.12754226
1259,0.12638804
1260,0.12523383
1261,0.12407962
1262,0.12292539
1263,0.12177118
1264,0.12061697
1265,0.11946274
1266,0.11830853
1267,0.11715432
1268,0.1160001
1269,0.11484588
1270,0.11369167
1271,0.11253745
1272,0.11138323
1273,0.11022902
1274,0.1090748
1275,0.10907351
1276,0.10907351
1277,0.10907351
1278,0.10907351
1279,0.10907351
1280,0.10907351
1281,0.10907351
1282,0.10907351
1283,0.10907351
1284,0.10907351
1285,0.10907351
1286,0.10907351
1287,0.10907351
1288,0.10907351
1289,0.10907351
1290,0.10907351
1291,0.10907351
1292,0.10907351
1293,0.10907351
1294,0.10907351
1295,0.10907351
1296,0.10907351
1297,0.10907351
1298,0.10907351
1299,0.10907351
1300,0.10907351
1301,0.10907351
1302,0.10907351
1303,0.10907351
1304,0.10907351
1305,0.10907351
1306,0.10907351
1307,0.10907351
1308,0.10907351
1309,0.10907351
1310,0.10907351
1311,0.10907351
1312,0.10907351
1313,0.10907351
1314,0.10907351
1315,0.10907351
1316,0.10907351
1317,0.10907351
1318,0.10907351
1319,0.10907351
1320,0.10907351
1321,0.10907351
1322,0.10907351
1323,0.10907351
1324,0.10907351
1325,0.10907351
1326,0.10907351
1327,0.10907351
1328,0.10907351
1329,0.11022644
1330,0.11138065
1331,0.11253487
1332,0.11368909
1333,0.1148433
1334,0.11599752
1335,0.11715174
1336,0.11830595
1337,0.11946017
1338,0.12061438
1339,0.1217686
1340,0.12292282
1341,0.12407703
1342,0.12465543
1343,0.12465543
1344,0.12465543
1345,0.12465543
1346,0.12465543
1347,0.12465543
1348,0.12465543
1349,0.12465543
1350,0.12465543
1351,0.12465543
1352,0.12465543
1353,0.12465543
1354,0.12465543
1355,0.12465543
1356,0.1235025
1357,0.12234829
1358,0.12119407
1359,0.12003986
1360,0.11888564
1361,0.11773142
1362,0.11657721
1363,0.11542299
1364,0.11426877
1365,0.11311456
1366,0.11196034
1367,0.11080612
1368,0.10965191
1369,0.10907351
1370,0.10907351
1371,0.10907351
1372,0.10907351
1373,0.10907351
1374,0.10907351
1375,0.10907351
1376,0.10907351
1377,0.10907351
1378,0.10907351
1379,0.10907351
1380,0.10907351
1381,0.10907351
1382,0.10907351
1383,0.10907351
1384,0.10907351
1385,0.10907351
1386,0.10907351
1387,0.10907351
1388,0.10907351
1389,0.10907351
1390,0.10907351
1391,0.10907351
1392,0.10907351
1393,0.10907351
1394,0.10907351
1395,0.10907351
1396,0.10964933
1397,0.11080355
1398,0.11195776
1399,0.11311198
1400,0.11426619
1401,0.11542041
1402,0.11657462
1403,0.11772884
1404,0.11888306
1405,0.12003727
1406,0.12119149
1407,0.12234571
1408,0.12349992
1409,0.12465414
1410,0.1235025
1411,0.12234829
1412,0.12119407
1413,0.12003986
1414,0.11888564
1415,0.11773142
1416,0.11657721
1417,0.11542299
1418,0.11426877
1419,0.11311456
1420,0.11196034
1421,0.11080612
1422,0.10965191
1423,0.10964933
1424,0.11080355
1425,0.11195776
1426,0.11311198
1427,0.11426619
1428,0.11542041
1429,0.11657462
1430,0.11772884
1431,0.11888306
1432,0.12003727
1433,0.12119149
1434,0.12234571
1435,0.12349992
1436,0.12465414
1437,0.1235025
1438,0.12234829
1439,0.12119407
1440,0.12003986
1441,0.11888564
1442,0.11773142
1443,0.11657721
1444,0.11542299
1445,0.11426877
1446,0.11311456
1447,0.11196034
1448,0.11080612
1449,0.10965191
1450,0.10964933
1451,0.11080355
1452,0.11195776
1453,0.11311198
1454,0.11426619
1455,0.11542041
1456,0.11657462
1457,0.11772884
1458,0.11888306
1459,0.12003727
1460,0.12119149
1461,0.12234571
1462,0.12349992
1463,0.12465414
1464,0.12465543
1465,0.12465543
1466,0.12465543
1467,0.12465543
1468,0.12465543
1469,0.12465543
1470,0.12465543
1471,0.12465543
1472,0.12465543
1473,0.12465543
1474,0.12465543
1475,0.12465543
1476,0.12465543
1477,0.12465543
1478,0.12465543
1479,0.12465543
1480,0.12465543
1481,0.12465543
1482,0.12465543
1483,0.12465543
1484,0.12465543
1485,0.12465543
1486,0.12465543
1487,0.12465543
1488,0.12465543
1489,0.12465543
1490,0.12465543
1491,0.12465543
1492,0.12465543
1493,0.12465543
1494,0.12465543
1495,0.12465543
1496,0.12465543
1497,0.12465543
1498,0.12465543
1499,0.12465543
1500,0.12465543
1501,0.12465543
1502,0.12465543
1503,0.12465543
1504,0.12407962
1505,0.12292539
1506,0.12177118
1507,0.12061697
1508,0.11946274
1509,0.11830853
1510,0.11715432
1511,0.1160001
1512,0.11484588
1513,0.11369167
1514,0.11253745
1515,0.11138323
1516,0.11022902
1517,0.1090748
1518,0.11022644
1519,0.11138065
1520,0.11253487
1521,0.11368909
1522,0.1148433
1523,0.11599752
1524,0.11715174
1525,0.11830595
1526,0.11946017
1527,0.12061438
1528,0.1217686
1529,0.12292282
1530,0.12407703
1531,0.12465543
1532,0.12465543
1533,0.12465543
1534,0.12465543
1535,0.12465543
1536,0.12465543
1537,0.12465543
1538,0.12465543
1539,0.12465543
1540,0.12465543
1541,0.12465543
1542,0.12465543
1543,0.12465543
1544,0.12465543
1545,0.1235025
1546,0.12234829
1547,0.12119407
1548,0.12003986
1549,0.11888564
1550,0.11773142
1551,0.11657721
1552,0.11542299
1553,0.11426877
1554,0.11311456
1555,0.11196034
1556,0.11080612
1557,0.10965191
1558,0.10907351
1559,0.10907351
1560,0.10907351
1561,0.10907351
1562,0.10907351
1563,0.10907351
1564,0.10907351
1565,0.10907351
1566,0.10907351
1567,0.10907351
1568,0.10907351
1569,0.10907351
1570,0.10907351
1571,0.10907351
1572,0.10907351
1573,0.10907351
1574,0.10907351
1575,0.10907351
1576,0.10907351
1577,0.10907351
1578,0.10907351
1579,0.10907351
1580,0.10907351
1581,0.10907351
1582,0.10907351
1583,0.10907351
1584,0.10907351
1585,0.10907351
1586,0.10907351
1587,0.10907351
1588,0.10907351
1589,0.10907351
1590,0.10907351
1591,0.10907351
1592,0.10907351
1593,0.10907351
1594,0.10907351
1595,0.10907351
1596,0.10907351
1597,0.10907351
1598,0.10907351
1599,0.10907351
1600,0.10907351
1601,0.10907351
1602,0.10907351
1603,0.10907351
1604,0.10907351
1605,0.10907351
1606,0.10907351
1607,0.10907351
1608,0.10907351
1609,0.10907351
1610,0.10907351
1611,0.10907351
1612,0.10907351
1613,0.10907351
1614,0.10907351
1615,0.10907351
1616,0.10907351
1617,0.10907351
1618,0.10907351
1619,0.10907351
1620,0.10907351
1621,0.10907351
1622,0.10907351
1623,0.10907351
1624,0.10907351
1625,0.10907351
1626,0.11022644
1627,0.11138065
1628,0.11253487
1629,0.11368909
1630,0.1148433
1631,0.11599752
1632,0.11715174
1633,0.11830595
1634,0.11946017
1635,0.12061438
1636,0.1217686
1637,0.12292282
1638,0.12407703
1639,0.12465543
1640,0.12465543
1641,0.12465543
1642,0.12465543
1643,0.12465543
1644,0.12465543
1645,0.12465543
1646,0.12465543
1647,0.12465543
1648,0.12465543
1649,0.12465543
1650,0.12465543
1651,0.12465543
1652,0.12465543
1653,0.12465543
1654,0.12465543
1655,0.12465543
1656,0.12465543
1657,0.12465543
1658,0.12465543
1659,0.12465543
1660,0.12465543
1661,0.12465543
1662,0.12465543
1663,0.12465543
1664,0.12465543
1665,0.12465543
1666,0.12523125
1667,0.12638547
1668,0.12753968
1669,0.1286939
1670,0.12984812
1671,0.13100234
1672,0.13215655
1673,0.13331077
1674,0.13446498
1675,0.13561921
1676,0.13677342
1677,0.13792764
1678,0.13908185
1679,0.14023606
1680,0.13908443
1681,0.13793021
1682,0.136776
1683,0.13562179
1684,0.13446757
1685,0.13331334
1686,0.13215913
1687,0.13100491
1688,0.1298507
1689,0.12869649
1690,0.12754226
1691,0.12638804
1692,0.12523383
1693,0.12407962
1694,0.12292539
1695,0.12177118
1696,0.12061697
1697,0.11946274
1698,0.11830853
1699,0.11715432
1700,0.1160001
1701,0.11484588
1702,0.11369167
1703,0.11253745
1704,0.11138323
1705,0.11022902
1706,0.1090748
1707,0.10907351
1708,0.10907351
1709,0.10907351
1710,0.10907351
1711,0.10907351
1712,0.10907351
1713,0.10907351
1714,0.10907351
1715,0.10907351
1716,0.10907351
1717,0.10907351
1718,0.10907351
1719,0.10907351
1720,0.10907351
1721,0.10907351
1722,0.10907351
1723,0.10907351
1724,0.10907351
1725,0.10907351
1726,0.10907351
1727,0.10907351
1728,0.10907351
1729,0.10907351
1730,0.10907351
1731,0.10907351
1732,0.10907351
1733,0.10907351
1734,0.10792058
1735,0.10676637
1736,0.10561215
1737,0.10445793
1738,0.10330372
1739,0.10214949
1740,0.10099528
1741,0.09984106
1742,0.09868684
1743,0.09753263
1744,0.09637841
1745,0.09522419
1746,0.09406997
1747,0.0940674
1748,0.09522162
1749,0.09637583
1750,0.09753005
1751,0.09868427
1752,0.09983848
1753,0.1009927
1754,0.10214692
1755,0.10330113
1756,0.10445535
1757,0.10560957
1758,0.10676379
1759,0.107918
1760,0.10907222
1761,0.10907351
1762,0.10907351
1763,0.10907351
1764,0.10907351
1765,0.10907351
1766,0.10907351
1767,0.10907351
1768,0.10907351
1769,0.10907351
1770,0.10907351
1771,0.10907351
1772,0.10907351
1773,0.10907351
1774,0.10907351
1775,0.10907351
1776,0.10907351
1777,0.10907351
1778,0.10907351
1779,0.10907351
1780,0.10907351
1781,0.10907351
1782,0.10907351
1783,0.10907351
1784,0.10907351
1785,0.10907351
1786,0.10907351
1787,0.10907351
1788,0.11022644
1789,0.11138065
1790,0.11253487
1791,0.11368909
1792,0.1148433
1793,0.11599752
1794,0.11715174
1795,0.11830595
1796,0.11946017
1797,0.12061438
1798,0.1217686
1799,0.12292282
1800,0.12407703
1801,0.12407962
1802,0.12292539
1803,0.12177118
1804,0.12061697
1805,0.11946274
1806,0.11830853
1807,0.11715432
1808,0.1160001
1809,0.11484588
1810,0.11369167
1811,0.11253745
1812,0.11138323
1813,0.11022902
1814,0.1090748
1815,0.10907351
1816,0.10907351
1817,0.10907351
1818,0.10907351
1819,0.10907351
1820,0.10907351
1821,0.10907351
1822,0.10907351
1823,0.10907351
1824,0.10907351
1825,0.10907351
1826,0.10907351
1827,0.10907351
1828,0.10907351
1829,0.10907351
1830,0.10907351
1831,0.10907351
1832,0.10907351
1833,0.10907351
1834,0.10907351
1835,0.10907351
1836,0.10907351
1837,0.10907351
1838,0.10907351
1839,0.10907351
1840,0.10907351
1841,0.10907351
1842,0.10907351
1843,0.10907351
1844,0.10907351
1845,0.10907351
1846,0.10907351
1847,0.10907351
1848,0.10907351
1849,0.10907351
1850,0.10907351
1851,0.10907351
1852,0.10907351
1853,0.10907351
1854,0.10907351
1855,0.10907351
1856,0.10907351
1857,0.10907351
1858,0.10907351
1859,0.10907351
1860,0.10907351
1861,0.10907351
1862,0.10907351
1863,0.10907351
1864,0.10907351
1865,0.10907351
1866,0.10907351
1867,0.10907351
1868,0.10907351
1869,0.10907351
1870,0.10907351
1871,0.10907351
1872,0.10907351
1873,0.10907351
1874,0.10907351
1875,0.10907351
1876,0.10907351
1877,0.10907351
1878,0.10907351
1879,0.10907351
1880,0.10907351
1881,0.10907351
1882,0.10907351
1883,0.10907351
1884,0.10907351
1885,0.10907351
1886,0.10907351
1887,0.10907351
1888,0.10907351
1889,0.10907351
1890,0.10907351
1891,0.10907351
1892,0.10907351
1893,0.10907351
1894,0.10907351
1895,0.10907351
1896,0.10907351
1897,0.10907351
1898,0.10907351
1899,0.10907351
1900,0.10907351
1901,0.10907351
1902,0.10907351
1903,0.10907351
1904,0.10907351
1905,0.10907351
1906,0.10907351
1907,0.10907351
1908,0.10907351
1909,0.10907351
1910,0.10907351
1911,0.10907351
1912,0.10907351
1913,0.10907351
1914,0.10907351
1915,0.10907351
1916,0.10907351
1917,0.10907351
1918,0.10907351
1919,0.10907351
1920,0.10907351
1921,0.10907351
1922,0.10907351
1923,0.11022644
1924,0.11138065
1925,0.11253487
1926,0.11368909
1927,0.1148433
1928,0.11599752
1929,0.11715174
1930,0.11830595
1931,0.11946017
1932,0.12061438
1933,0.1217686
1934,0.12292282
1935,0.12407703
1936,0.12407962
1937,0.12292539
1938,0.12177118
1939,0.12061697
1940,0.11946274
1941,0.11830853
1942,0.11715432
1943,0.1160001
1944,0.11484588
1945,0.11369167
1946,0.11253745
1947,0.11138323
1948,0.11022902
1949,0.1090748
1950,0.10907351
1951,0.10907351
1952,0.10907351
1953,0.10907351
1954,0.10907351
1955,0.10907351
1956,0.10907351
1957,0.10907351
1958,0.10907351
1959,0.10907351
1960,0.10907351
1961,0.10907351
1962,0.10907351
1963,0.10907351
1964,0.10907351
1965,0.10907351
1966,0.10907351
1967,0.10907351
1968,0.10907351
1969,0.10907351
1970,0.10907351
1971,0.10907351
1972,0.10907351
1973,0.10907351
1974,0.10907351
1975,0.10907351
1976,0.10907351
1977,0.10907351
1978,0.10907351
1979,0.10907351
1980,0.10907351
1981,0.10907351
1982,0.10907351
1983,0.10907351
1984,0.10907351
1985,0.10907351
1986,0.10907351
1987,0.10907351
1988,0.10907351
1989,0.10907351
1990,0.10907351
1991,0.10907351
1992,0.10907351
1993,0.10907351
1994,0.10907351
1995,0.10907351
1996,0.10907351
1997,0.10907351
1998,0.10907351
1999,0.10907351
2000,0.10907351
2001,0.10907351
2002,0.10907351
2003,0.10907351
2004,0.10907351
2005,0.10907351
2006,0.10907351
2007,0.10907351
2008,0.10907351
2009,0.10907351
2010,0.10907351
2011,0.10907351
2012,0.10907351
2013,0.10907351
2014,0.10907351
2015,0.10907351
2016,0.10907351
2017,0.10907351
2018,0.10907351
2019,0.10907351
2020,0.10907351
2021,0.10907351
2022,0.10907351
2023,0.10907351
2024,0.10907351
2025,0.10907351
2026,0.10907351
2027,0.10907351
2028,0.10907351
2029,0.10907351
2030,0.10907351
2031,0.10907351
2032,0.10907351
2033,0.10907351
2034,0.10907351
2035,0.10907351
2036,0.10907351
2037,0.10907351
2038,0.10907351
2039,0.10907351
2040,0.10907351
2041,0.10907351
2042,0.10907351
2043,0.10907351
2044,0.10907351
2045,0.10907351
2046,0.10907351
2047,0.10907351
2048,0.10907351
2049,0.10907351
2050,0.10907351
2051,0.10907351
2052,0.10907351
2053,0.10907351
2054,0.10907351
2055,0.10907351
2056,0.10907351
2057,0.10907351
2058,0.10907351
2059,0.10907351
2060,0.10907351
2061,0.10907351
2062,0.10907351
2063,0.10907351
2064,0.10907351
2065,0.10907351
2066,0.10907351
2067,0.10907351
2068,0.10907351
2069,0.10907351
2070,0.10907351
2071,0.10907351
2072,0.10907351
2073,0.10907351
2074,0.10907351
2075,0.10907351
2076,0.10907351
2077,0.10907351
2078,0.10907351
2079,0.10907351
2080,0.10907351
2081,0.10907351
2082,0.10907351
2083,0.10907351
2084,0.10907351
2085,0.10907351
2086,0.10907351
2087,0.10907351
2088,0.10907351
2089,0.10907351
2090,0.10907351
2091,0.10907351
2092,0.10907351
2093,0.10907351
2094,0.10907351
2095,0.10907351
2096,0.10907351
2097,0.10907351
2098,0.10907351
2099,0.10907351
2100,0.10907351
2101,0.10907351
2102,0.10907351
2103,0.10907351
2104,0.10907351
2105,0.10907351
2106,0.10907351
2107,0.10907351
2108,0.10907351
2109,0.10907351
2110,0.10907351
2111,0.10907351
2112,0.10907351
2113,0.10907351
2114,0.10907351
2115,0.10907351
2116,0.10907351
2117,0.10907351
2118,0.10907351
2119,0.10907351
2120,0.10907351
2121,0.10907351
2122,0.10907351
2123,0.10907351
2124,0.10907351
2125,0.10907351
2126,0.10907351
2127,0.10907351
2128,0.10907351
2129,0.10907351
2130,0.10907351
2131,0.10907351
2132,0.10907351
2133,0.10907351
2134,0.10907351
2135,0.10907351
2136,0.10907351
2137,0.10907351
2138,0.10907351
2139,0.10907351
2140,0.10907351
2141,0.10907351
2142,0.10907351
2143,0.10907351
2144,0.10907351
2145,0.10907351
2146,0.10907351
2147,0.10907351
2148,0.10907351
2149,0.10907351
2150,0.10907351
2151,0.10907351
2152,0.10907351
2153,0.10907351
2154,0.10907351
2155,0.10907351
2156,0.10907351
2157,0.10907351
2158,0.10907351
2159,0.10907351
2160,0.10907351
2161,0.10907351
2162,0.10907351
2163,0.10907351
2164,0.10907351
2165,0.10907351
2166,0.10907351
2167,0.10907351
2168,0.10907351
2169,0.10907351
2170,0.10907351
2171,0.10907351
2172,0.10907351
2173,0.10907351
2174,0.10907351
2175,0.10907351
2176,0.10907351
2177,0.10907351
2178,0.10907351
2179,0.10907351
2180,0.10907351
2181,0.10907351
2182,0.10907351
2183,0.10907351
2184,0.10907351
2185,0.10907351
2186,0.10907351
2187,0.10907351
2188,0.10907351
2189,0.10907351
2190,0.10907351
2191,0.10907351
2192,0.10907351
2193,0.10907351
2194,0.10907351
2195,0.10907351
2196,0.10907351
2197,0.10907351
2198,0.10907351
2199,0.10907351
2200,0.10907351
2201,0.10907351
2202,0.10907351
2203,0.10907351
2204,0.10907351
2205,0.10907351
2206,0.10907351
2207,0.10907351
2208,0.10907351
2209,0.10907351
2210,0.10907351
2211,0.10907351
2212,0.10907351
2213,0.10907351
2214,0.10907351
2215,0.10907351
2216,0.10907351
2217,0.10907351
2218,0.10907351
2219,0.10907351
2220,0.10907351
2221,0.10907351
2222,0.10907351
2223,0.10907351
2224,0.10907351
2225,0.10907351
2226,0.10907351
2227,0.10907351
2228,0.10907351
2229,0.10907351
2230,0.10907351
2231,0.10907351
2232,0.10907351
2233,0.10907351
2234,0.10907351
2235,0.10907351
2236,0.10907351
2237,0.10907351
2238,0.10907351
2239,0.10907351
2240,0.10907351
2241,0.10907351
2242,0.10907351
2243,0.10907351
2244,0.10907351
2245,0.10907351
2246,0.10907351
2247,0.10907351
2248,0.10907351
2249,0.10907351
2250,0.10907351
2251,0.10907351
2252,0.10907351
2253,0.10907351
2254,0.10907351
2255,0.10907351
2256,0.10907351
2257,0.10907351
2258,0.10907351
2259,0.10907351
2260,0.10964933
2261,0.11080355
2262,0.11195776
2263,0.11311198
2264,0.11426619
2265,0.11542041
2266,0.11657462
2267,0.11772884
2268,0.11888306
2269,0.12003727
2270,0.12119149
2271,0.12234571
2272,0.12349992
2273,0.12465414
2274,0.1235025
2275,0.12234829
2276,0.12119407
2277,0.12003986
2278,0.11888564
2279,0.11773142
2280,0.11657721
2281,0.11542299
2282,0.11426877
2283,0.11311456
2284,0.11196034
2285,0.11080612
2286,0.10965191
2287,0.10907351
2288,0.10907351
2289,0.10907351
2290,0.10907351
2291,0.10907351
2292,0.10907351
2293,0.10907351
2294,0.10907351
2295,0.10907351
2296,0.10907351
2297,0.10907351
2298,0.10907351
2299,0.10907351
2300,0.10907351
2301,0.10907351
2302,0.10907351
2303,0.10907351
2304,0.10907351
2305,0.10907351
2306,0.10907351
2307,0.10907351
2308,0.10907351
2309,0.10907351
2310,0.10907351
2311,0.10907351
2312,0.10907351
2313,0.10907351
2314,0.10907351
2315,0.10907351
2316,0.10907351
2317,0.10907351
2318,0.10907351
2319,0.10907351
2320,0.10907351
2321,0.10907351
2322,0.10907351
2323,0.10907351
2324,0.10907351
2325,0.10907351
2326,0.10907351
2327,0.10907351
2328,0.10907351
2329,0.10907351
2330,0.10907351
2331,0.10907351
2332,0.10907351
2333,0.10907351
2334,0.10907351
2335,0.10907351
2336,0.10907351
2337,0.10907351
2338,0.10907351
2339,0.10907351
2340,0.10907351
2341,0.10907351
2342,0.10907351
2343,0.10907351
2344,0.10907351
2345,0.10907351
2346,0.10907351
2347,0.10907351
2348,0.10907351
2349,0.10907351
2350,0.10907351
2351,0.10907351
2352,0.10907351
2353,0.10907351
2354,0.10907351
2355,0.11022644
2356,0.11138065
2357,0.11253487
2358,0.11368909
2359,0.1148433
2360,0.11599752
2361,0.11715174
2362,0.11830595
2363,0.11946017
2364,0.12061438
2365,0.1217686
2366,0.12292282
2367,0.12407703
2368,0.12465543
2369,0.12465543
2370,0.12465543
2371,0.12465543
2372,0.12465543
2373,0.12465543
2374,0.12465543
2375,0.12465543
2376,0.12465543
2377,0.12465543
2378,0.12465543
2379,0.12465543
2380,0.12465543
2381,0.12465543
2382,0.12465543
2383,0.12465543
2384,0.12465543
2385,0.12465543
2386,0.12465543
2387,0.12465543
2388,0.12465543
2389,0.12465543
2390,0.12465543
2391,0.12465543
2392,0.12465543
2393,0.12465543
2394,0.12465543
2395,0.12465543
2396,0.12465543
2397,0.12465543
2398,0.12465543
2399,0.12465543
2400,0.12465543
2401,0.12465543
2402,0.12465543
2403,0.12465543
2404,0.12465543
2405,0.12465543
2406,0.12465543
2407,0.12465543
2408,0.12465543
2409,0.12465543
2410,0.12465543
2411,0.12465543
2412,0.12465543
2413,0.12465543
2414,0.12465543
2415,0.12465543
2416,0.12465543
2417,0.12465543
2418,0.12465543
2419,0.12465543
2420,0.12465543
2421,0.12465543
2422,0.12407962
2423,0.12292539
2424,0.12177118
2425,0.12061697
2426,0.11946274
2427,0.11830853
2428,0.11715432
2429,0.1160001
2430,0.11484588
2431,0.11369167
2432,0.11253745
2433,0.11138323
2434,0.11022902
2435,0.1090748
2436,0.10907351
2437,0.10907351
2438,0.10907351
2439,0.10907351
2440,0.10907351
2441,0.10907351
2442,0.10907351
2443,0.10907351
2444,0.10907351
2445,0.10907351
2446,0.10907351
2447,0.10907351
2448,0.10907351
2449,0.10907351
2450,0.10907351
2451,0.10907351
2452,0.10907351
2453,0.10907351
2454,0.10907351
2455,0.10907351
2456,0.10907351
2457,0.10907351
2458,0.10907351
2459,0.10907351
2460,0.10907351
2461,0.10907351
2462,0.10907351
2463,0.10907351
2464,0.10907351
2465,0.10907351
2466,0.10907351
2467,0.10907351
2468,0.10907351
2469,0.10907351
2470,0.10907351
2471,0.10907351
2472,0.10907351
2473,0.10907351
2474,0.10907351
2475,0.10907351
2476,0.10849769
2477,0.10734347
2478,0.10618926
2479,0.10503504
2480,0.10388082
2481,0.10272661
2482,0.10157239
2483,0.10041817
2484,0.09926395
2485,0.09810974
2486,0.09695552
2487,0.0958013
2488,0.09464709
2489,0.09349287
2490,0.0946445
2491,0.09579872
2492,0.09695294
2493,0.09810716
2494,0.09926137
2495,0.10041559
2496,0.10156981
2497,0.10272402
2498,0.10387825
2499,0.10503246
2500,0.10618668
2501,0.1073409
2502,0.10849511
2503,0.10907351
2504,0.10907351
2505,0.10907351
2506,0.10907351
2507,0.10907351
2508,0.10907351
2509,0.10907351
2510,0.10907351
2511,0.10907351
2512,0.10907351
2513,0.10907351
2514,0.10907351
2515,0.10907351
2516,0.10907351
2517,0.10907351
2518,0.10907351
2519,0.10907351
2520,0.10907351
2521,0.10907351
2522,0.10907351
2523,0.10907351
2524,0.10907351
2525,0.10907351
2526,0.10907351
2527,0.10907351
2528,0.10907351
2529,0.10907351
2530,0.10964933
2531,0.11080355
2532,0.11195776
2533,0.11311198
2534,0.11426619
2535,0.11542041
2536,0.11657462
2537,0.11772884
2538,0.11888306
2539,0.12003727
2540,0.12119149
2541,0.12234571
2542,0.12349992
2543,0.12465414
2544,0.12465543
2545,0.12465543
2546,0.12465543
2547,0.12465543
2548,0.12465543
2549,0.12465543
2550,0.12465543
2551,0.12465543
2552,0.12465543
2553,0.12465543
2554,0.12465543
2555,0.12465543
2556,0.12465543
2557,0.12465543
2558,0.12465543
2559,0.12465543
2560,0.12465543
2561,0.12465543
2562,0.12465543
2563,0.12465543
2564,0.12465543
2565,0.12465543
2566,0.12465543
2567,0.12465543
2568,0.12465543
2569,0.12465543
2570,0.12465543
2571,0.12465543
2572,0.12465543
2573,0.12465543
2574,0.12465543
2575,0.12465543
2576,0.12465543
2577,0.12465543
2578,0.12465543
2579,0.12465543
2580,0.12465543
2581,0.12465543
2582,0.12465543
2583,0.12465543
2584,0.12407962
2585,0.12292539
2586,0.12177118
2587,0.12061697
2588,0.11946274
2589,0.11830853
2590,0.11715432
2591,0.1160001
2592,0.11484588
2593,0.11369167
2594,0.11253745
2595,0.11138323
2596,0.11022902
2597,0.1090748
2598,0.10907351
2599,0.10907351
2600,0.10907351
2601,0.10907351
2602,0.10907351
2603,0.10907351
2604,0.10907351
2605,0.10907351
2606,0.10907351
2607,0.10907351
2608,0.10907351
2609,0.10907351
2610,0.10907351
2611,0.10907351
2612,0.10907351
2613,0.10907351
2614,0.10907351
2615,0.10907351
2616,0.10907351
2617,0.10907351
2618,0.10907351
2619,0.10907351
2620,0.10907351
2621,0.10907351
2622,0.10907351
2623,0.10907351
2624,0.10907351
2625,0.10907351
2626,0.10907351
2627,0.10907351
2628,0.10907351
2629,0.10907351
2630,0.10907351
2631,0.10907351
2632,0.10907351
2633,0.10907351
2634,0.10907351
2635,0.10907351
2636,0.10907351
2637,0.10907351
2638,0.10907351
2639,0.10907351
2640,0.10907351
2641,0.10907351
2642,0.10907351
2643,0.10907351
2644,0.10907351
2645,0.10907351
2646,0.10907351
2647,0.10907351
2648,0.10907351
2649,0.10907351
2650,0.10907351
2651,0.10907351
2652,0.10907351
2653,0.10907351
2654,0.10907351
2655,0.10907351
2656,0.10907351
2657,0.10907351
2658,0.10907351
2659,0.10907351
2660,0.10907351
2661,0.10907351
2662,0.10907351
2663,0.10907351
2664,0.10907351
2665,0.10907351
2666,0.10907351
2667,0.10907351
2668,0.10907351
2669,0.10907351
2670,0.10907351
2671,0.10907351
2672,0.10907351
2673,0.10907351
2674,0.10907351
2675,0.10907351
2676,0.10907351
2677,0.10907351
2678,0.10907351
2679,0.10907351
2680,0.10907351
2681,0.10907351
2682,0.10907351
2683,0.10907351
2684,0.10907351
2685,0.10907351
2686,0.10907351
2687,0.10907351
2688,0.10907351
2689,0.10907351
2690,0.10907351
2691,0.10907351
2692,0.10907351
2693,0.10907351
2694,0.10907351
2695,0.10907351
2696,0.10907351
2697,0.10907351
2698,0.10907351
2699,0.10907351
2700,0.10907351
2701,0.10907351
2702,0.10907351
2703,0.10907351
2704,0.10907351
2705,0.10907351
2706,0.10907351
2707,0.10907351
2708,0.10907351
2709,0.10907351
2710,0.10907351
2711,0.10907351
2712,0.10907351
2713,0.10907351
2714,0.10907351
2715,0.10907351
2716,0.10907351
2717,0.10907351
2718,0.10907351
2719,0.10907351
2720,0.10907351
2721,0.10907351
2722,0.10907351
2723,0.10907351
2724,0.10907351
2725,0.10907351
2726,0.10907351
2727,0.10907351
2728,0.10907351
2729,0.10907351
2730,0.10907351
2731,0.10907351
2732,0.10907351
2733,0.10907351
2734,0.10907351
2735,0.10907351
2736,0.10907351
2737,0.10907351
2738,0.10907351
2739,0.10907351
2740,0.10907351
2741,0.10907351
2742,0.10907351
2743,0.10907351
2744,0.10907351
2745,0.10907351
2746,0.10907351
2747,0.10907351
2748,0.10907351
2749,0.10907351
2750,0.10907351
2751,0.10907351
2752,0.10907351
2753,0.10907351
2754,0.10907351
2755,0.10907351
2756,0.10907351
2757,0.10907351
2758,0.10907351
2759,0.10907351
2760,0.10907351
2761,0.10907351
2762,0.10907351
2763,0.10907351
2764,0.10907351
2765,0.10907351
2766,0.10907351
2767,0.10907351
2768,0.10907351
2769,0.10907351
2770,0.10907351
2771,0.10907351
2772,0.10907351
2773,0.10964933
2774,0.11080355
2775,0.11195776
2776,0.11311198
2777,0.11426619
2778,0.11542041
2779,0.11657462
2780,0.11772884
2781,0.11888306
2782,0.12003727
2783,0.12119149
2784,0.12234571
2785,0.12349992
2786,0.12465414
2787,0.12465543
2788,0.12465543
2789,0.12465543
2790,0.12465543
2791,0.12465543
2792,0.12465543
2793,0.12465543
2794,0.12465543
2795,0.12465543
2796,0.12465543
2797,0.12465543
2798,0.12465543
2799,0.12465543
2800,0.12407962
2801,0.12292539
2802,0.12177118
2803,0.12061697
2804,0.11946274
2805,0.11830853
2806,0.11715432
2807,0.1160001
2808,0.11484588
2809,0.11369167
2810,0.11253745
2811,0.11138323
2812,0.11022902
2813,0.1090748
2814,0.11022644
2815,0.11138065
2816,0.11253487
2817,0.11368909
2818,0.1148433
2819,0.11599752
2820,0.11715174
2821,0.11830595
2822,0.11946017
2823,0.12061438
2824,0.1217686
2825,0.12292282
2826,0.12407703
2827,0.12465543
2828,0.12465543
2829,0.12465543
2830,0.12465543
2831,0.12465543
2832,0.12465543
2833,0.12465543
2834,0.12465543
2835,0.12465543
2836,0.12465543
2837,0.12465543
2838,0.12465543
2839,0.12465543
2840,0.12465543
2841,0.12465543
2842,0.12465543
2843,0.12465543
2844,0.12465543
2845,0.12465543
2846,0.12465543
2847,0.12465543
2848,0.12465543
2849,0.12465543
2850,0.12465543
2851,0.12465543
2852,0.12465543
2853,0.12465543
2854,0.12407962
2855,0.12292539
2856,0.12177118
2857,0.12061697
2858,0.11946274
2859,0.11830853
2860,0.11715432
2861,0.1160001
2862,0.11484588
2863,0.11369167
2864,0.11253745
2865,0.11138323
2866,0.11022902
2867,0.1090748
2868,0.10907351
2869,0.10907351
2870,0.10907351
2871,0.10907351
2872,0.10907351
2873,0.10907351
2874,0.10907351
2875,0.10907351
2876,0.10907351
2877,0.10907351
2878,0.10907351
2879,0.10907351
2880,0.10907351
2881,0.10907351
2882,0.10907351
2883,0.10907351
2884,0.10907351
2885,0.10907351
2886,0.10907351
2887,0.10907351
2888,0.10907351
2889,0.10907351
2890,0.10907351
2891,0.10907351
2892,0.10907351
2893,0.10907351
2894,0.10907351
2895,0.10907351
2896,0.10907351
2897,0.10907351
2898,0.10907351
2899,0.10907351
2900,0.10907351
2901,0.10907351
2902,0.10907351
2903,0.10907351
2904,0.10907351
2905,0.10907351
2906,0.10907351
2907,0.10907351
2908,0.10907351
2909,0.10907351
2910,0.10907351
2911,0.10907351
2912,0.10907351
2913,0.10907351
2914,0.10907351
2915,0.10907351
2916,0.10907351
2917,0.10907351
2918,0.10907351
2919,0.10907351
2920,0.10907351
2921,0.10907351
2922,0.10907351
2923,0.10907351
2924,0.10907351
2925,0.10907351
2926,0.10907351
2927,0.10907351
2928,0.10907351
2929,0.10907351
2930,0.10907351
2931,0.10907351
2932,0.10907351
2933,0.10907351
2934,0.10907351
2935,0.10907351
2936,0.10907351
2937,0.10907351
2938,0.10907351
2939,0.10907351
2940,0.10907351
2941,0.10907351
2942,0.10907351
2943,0.10907351
2944,0.10907351
2945,0.10907351
2946,0.10907351
2947,0.10907351
2948,0.10907351
2949,0.10907351
2950,0.10907351
2951,0.10907351
2952,0.10907351
2953,0.10907351
2954,0.10907351
2955,0.10907351
2956,0.10907351
2957,0.10907351
2958,0.10907351
2959,0.10907351
2960,0.10907351
2961,0.10907351
2962,0.10907351
2963,0.10907351
2964,0.10907351
2965,0.10907351
2966,0.10907351
2967,0.10907351
2968,0.10907351
2969,0.10907351
2970,0.10907351
2971,0.10907351
2972,0.10907351
2973,0.10907351
2974,0.10907351
2975,0.10907351
2976,0.11022644
2977,0.11138065
2978,0.11253487
2979,0.11368909
2980,0.1148433
2981,0.11599752
2982,0.11715174
2983,0.11830595
2984,0.11946017
2985,0.12061438
2986,0.1217686
2987,0.12292282
2988,0.12407703
2989,0.12465543
2990,0.12465543
2991,0.12465543
2992,0.12465543
2993,0.12465543
2994,0.12465543
2995,0.12465543
2996,0.12465543
2997,0.12465543
2998,0.12465543
2999,0.12465543
3000,0.12465543
3001,0.12465543
3002,0.12465543
3003,0.12465543
3004,0.12465543
3005,0.12465543
3006,0.12465543
3007,0.12465543
3008,0.12465543
3009,0.12465543
3010,0.12465543
3011,0.12465543
3012,0.12465543
3013,0.12465543
3014,0.12465543
3015,0.12465543
3016,0.12465543
3017,0.12465543
3018,0.12465543
3019,0.12465543
3020,0.12465543
3021,0.12465543
3022,0.12465543
3023,0.12465543
3024,0.12465543
3025,0.12465543
3026,0.12465543
3027,0.12465543
3028,0.12465543
3029,0.12465543
3030,0.1235025
3031,0.12234829
3032,0.12119407
3033,0.12003986
3034,0.11888564
3035,0.11773142
3036,0.11657721
3037,0.11542299
3038,0.11426877
3039,0.11311456
3040,0.11196034
3041,0.11080612
3042,0.10965191
3043,0.10907351
3044,0.10907351
3045,0.10907351
3046,0.10907351
3047,0.10907351
3048,0.10907351
3049,0.10907351
3050,0.10907351
3051,0.10907351
3052,0.10907351
3053,0.10907351
3054,0.10907351
3055,0.10907351
3056,0.10907351
3057,0.11022644
3058,0.11138065
3059,0.11253487
3060,0.11368909
3061,0.1148433
3062,0.11599752
3063,0.11715174
3064,0.11830595
3065,0.11946017
3066,0.12061438
3067,0.1217686
3068,0.12292282
3069,0.12407703
3070,0.12465543
3071,0.12465543
3072,0.12465543
3073,0.12465543
3074,0.12465543
3075,0.12465543
3076,0.12465543
3077,0.12465543
3078,0.12465543
3079,0.12465543
3080,0.12465543
3081,0.12465543
3082,0.12465543
3083,0.12465543
3084,0.12465543
3085,0.12465543
3086,0.12465543
3087,0.12465543
3088,0.12465543
3089,0.12465543
3090,0.12465543
3091,0.12465543
3092,0.12465543
3093,0.12465543
3094,0.12465543
3095,0.12465543
3096,0.12465543
3097,0.12465543
3098,0.12465543
3099,0.12465543
3100,0.12465543
3101,0.12465543
3102,0.12465543
3103,0.12465543
3104,0.12465543
3105,0.12465543
3106,0.12465543
3107,0.12465543
3108,0.12465543
3109,0.12465543
3110,0.12465543
3111,0.1235025
3112,0.12234829
3113,0.12119407
3114,0.12003986
3115,0.11888564
3116,0.11773142
3117,0.11657721
3118,0.11542299
3119,0.11426877
3120,0.11311456
3121,0.11196034
3122,0.11080612
3123,0.10965191
3124,0.10907351
3125,0.10907351
3126,0.10907351
3127,0.10907351
3128,0.10907351
3129,0.10907351
3130,0.10907351
3131,0.10907351
3132,0.10907351
3133,0.10907351
3134,0.10907351
3135,0.10907351
3136,0.10907351
3137,0.10907351
3138,0.10907351
3139,0.10907351
3140,0.10907351
3141,0.10907351
3142,0.10907351
3143,0.10907351
3144,0.10907351
3145,0.10907351
3146,0.10907351
3147,0.10907351
3148,0.10907351
3149,0.10907351
3150,0.10907351
3151,0.10907351
3152,0.10907351
3153,0.10907351
3154,0.10907351
3155,0.10907351
3156,0.10907351
3157,0.10907351
3158,0.10907351
3159,0.10907351
3160,0.10907351
3161,0.10907351
3162,0.10907351
3163,0.10907351
3164,0.10907351
3165,0.10907351
3166,0.10907351
3167,0.10907351
3168,0.10907351
3169,0.10907351
3170,0.10907351
3171,0.10907351
3172,0.10907351
3173,0.10907351
3174,0.10907351
3175,0.10907351
3176,0.10907351
3177,0.10907351
3178,0.10964933
3179,0.11080355
3180,0.11195776
3181,0.11311198
3182,0.11426619
3183,0.11542041
3184,0.11657462
3185,0.11772884
3186,0.11888306
3187,0.12003727
3188,0.12119149
3189,0.12234571
3190,0.12349992
3191,0.12465414
3192,0.12465543
3193,0.12465543
3194,0.12465543
3195,0.12465543
3196,0.12465543
3197,0.12465543
3198,0.12465543
3199,0.12465543
3200,0.12465543
3201,0.12465543
3202,0.12465543
3203,0.12465543
3204,0.12465543
3205,0.12465543
3206,0.12465543
3207,0.12465543
3208,0.12465543
3209,0.12465543
3210,0.12465543
3211,0.12465543
3212,0.12465543
3213,0.12465543
3214,0.12465543
3215,0.12465543
3216,0.12465543
3217,0.12465543
3218,0.12465543
3219,0.12465543
3220,0.12465543
3221,0.12465543
3222,0.12465543
3223,0.12465543
3224,0.12465543
3225,0.12465543
3226,0.12465543
3227,0.12465543
3228,0.12465543
3229,0.12465543
3230,0.12465543
3231,0.12465543
3232,0.12465543
3233,0.12465543
3234,0.12465543
3235,0.12465543
3236,0.12465543
3237,0.12465543
3238,0.12465543
3239,0.12465543
3240,0.12465543
3241,0.12465543
3242,0.12465543
3243,0.12465543
3244,0.12465543
3245,0.12465543
3246,0.12465543
3247,0.12465543
3248,0.12465543
3249,0.12465543
3250,0.12465543
3251,0.12465543
3252,0.12465543
3253,0.12465543
3254,0.12465543
3255,0.12465543
3256,0.12465543
3257,0.12465543
3258,0.12465543
3259,0.12407962
3260,0.12292539
3261,0.12177118
3262,0.12061697
3263,0.11946274
3264,0.11830853
3265,0.11715432
3266,0.1160001
3267,0.11484588
3268,0.11369167
3269,0.11253745
3270,0.11138323
3271,0.11022902
3272,0.1090748
3273,0.10907351
3274,0.10907351
3275,0.10907351
3276,0.10907351
3277,0.10907351
3278,0.10907351
3279,0.10907351
3280,0.10907351
3281,0.10907351
3282,0.10907351
3283,0.10907351
3284,0.10907351
3285,0.10907351
3286,0.10907351
3287,0.10907351
3288,0.10907351
3289,0.10907351
3290,0.10907351
3291,0.10907351
3292,0.10907351
3293,0.10907351
3294,0.10907351
3295,0.10907351
3296,0.10907351
3297,0.10907351
3298,0.10907351
3299,0.10907351
3300,0.10907351
3301,0.10907351
3302,0.10907351
3303,0.10907351
3304,0.10907351
3305,0.10907351
3306,0.10907351
3307,0.10907351
3308,0.10907351
3309,0.10907351
3310,0.10907351
3311,0.10907351
3312,0.10907351
3313,0.10907351
3314,0.10907351
3315,0.10907351
3316,0.10907351
3317,0.10907351
3318,0.10907351
3319,0.10907351
3320,0.10907351
3321,0.10907351
3322,0.10907351
3323,0.10907351
3324,0.10907351
3325,0.10907351
3326,0.10907351
3327,0.11022644
3328,0.11138065
3329,0.11253487
3330,0.11368909
3331,0.1148433
3332,0.11599752
3333,0.11715174
3334,0.11830595
3335,0.11946017
3336,0.12061438
3337,0.1217686
3338,0.12292282
3339,0.12407703
3340,0.12465543
3341,0.12465543
3342,0.12465543
3343,0.12465543
3344,0.12465543
3345,0.12465543
3346,0.12465543
3347,0.12465543
3348,0.12465543
3349,0.12465543
3350,0.12465543
3351,0.12465543
3352,0.12465543
3353,0.12465543
3354,0.12465543
3355,0.12465543
3356,0.12465543
3357,0.12465543
3358,0.12465543
3359,0.12465543
3360,0.12465543
3361,0.12465543
3362,0.12465543
3363,0.12465543
3364,0.12465543
3365,0.12465543
3366,0.12465543
3367,0.12465543
3368,0.12465543
3369,0.12465543
3370,0.12465543
3371,0.12465543
3372,0.12465543
3373,0.12465543
3374,0.12465543
3375,0.12465543
3376,0.12465543
3377,0.12465543
3378,0.12465543
3379,0.12465543
3380,0.12465543
3381,0.12465543
3382,0.12465543
3383,0.12465543
3384,0.12465543
3385,0.12465543
3386,0.12465543
3387,0.12465543
3388,0.12465543
3389,0.12465543
3390,0.12465543
3391,0.12465543
3392,0.12465543
3393,0.12465543
3394,0.12465543
3395,0.12465543
3396,0.12465543
3397,0.12465543
3398,0.12465543
3399,0.12465543
3400,0.12465543
3401,0.12465543
3402,0.12465543
3403,0.12465543
3404,0.12465543
3405,0.12465543
3406,0.12465543
3407,0.12465543
3408,0.1235025
3409,0.12234829
3410,0.12119407
3411,0.12003986
3412,0.11888564
3413,0.11773142
3414,0.11657721
3415,0.11542299
3416,0.11426877
3417,0.11311456
3418,0.11196034
3419,0.11080612
3420,0.10965191
3421,0.10907351
3422,0.10907351
3423,0.10907351
3424,0.10907351
3425,0.10907351
3426,0.10907351
3427,0.10907351
3428,0.10907351
3429,0.10907351
3430,0.10907351
3431,0.10907351
3432,0.10907351
3433,0.10907351
3434,0.10907351
3435,0.10907351
3436,0.10907351
3437,0.10907351
3438,0.10907351
3439,0.10907351
3440,0.10907351
3441,0.10907351
3442,0.10907351
3443,0.10907351
3444,0.10907351
3445,0.10907351
3446,0.10907351
3447,0.10907351
3448,0.10907351
3449,0.10907351
3450,0.10907351
3451,0.10907351
3452,0.10907351
3453,0.10907351
3454,0.10907351
3455,0.10907351
3456,0.10907351
3457,0.10907351
3458,0.10907351
3459,0.10907351
3460,0.10907351
3461,0.10907351
3462,0.11022644
3463,0.11138065
3464,0.11253487
3465,0.11368909
3466,0.1148433
3467,0.11599752
3468,0.11715174
3469,0.11830595
3470,0.11946017
3471,0.12061438
3472,0.1217686
3473,0.12292282
3474,0.12407703
3475,0.12465543
3476,0.12465543
3477,0.12465543
3478,0.12465543
3479,0.12465543
3480,0.12465543
3481,0.12465543
3482,0.12465543
3483,0.12465543
3484,0.12465543
3485,0.12465543
3486,0.12465543
3487,0.12465543
3488,0.12465543
3489,0.12465543
3490,0.12465543
3491,0.12465543
3492,0.12465543
3493,0.12465543
3494,0.12465543
3495,0.12465543
3496,0.12465543
3497,0.12465543
3498,0.12465543
3499,0.12465543
3500,0.12465543
3501,0.12465543
3502,0.12465543
3503,0.12465543
3504,0.12465543
3505,0.12465543
3506,0.12465543
3507,0.12465543
3508,0.12465543
3509,0.12465543
3510,0.12465543
3511,0.12465543
3512,0.12465543
3513,0.12465543
3514,0.12465543
3515,0.12465543
3516,0.1235025
3517,0.12234829
3518,0.12119407
3519,0.12003986
3520,0.11888564
3521,0.11773142
3522,0.11657721
3523,0.11542299
3524,0.11426877
3525,0.11311456
3526,0.11196034
3527,0.11080612
3528,0.10965191
3529,0.10964933
3530,0.11080355
3531,0.11195776
3532,0.11311198
3533,0.11426619
3534,0.11542041
3535,0.11657462
3536,0.11772884
3537,0.11888306
3538,0.12003727
3539,0.12119149
3540,0.12234571
3541,0.12349992
3542,0.12465414
3543,0.12465543
3544,0.12465543
3545,0.12465543
3546,0.12465543
3547,0.12465543
3548,0.12465543
3549,0.12465543
3550,0.12465543
3551,0.12465543
3552,0.12465543
3553,0.12465543
3554,0.12465543
3555,0.12465543
3556,0.12407962
3557,0.12292539
3558,0.12177118
3559,0.12061697
3560,0.11946274
3561,0.11830853
3562,0.11715432
3563,0.1160001
3564,0.11484588
3565,0.11369167
3566,0.11253745
3567,0.11138323
3568,0.11022902
3569,0.1090748
3570,0.10907351
3571,0.10907351
3572,0.10907351
3573,0.10907351
3574,0.10907351
3575,0.10907351
3576,0.10907351
3577,0.10907351
3578,0.10907351
3579,0.10907351
3580,0.10907351
3581,0.10907351
3582,0.10907351
3583,0.10907351
3584,0.10907351
3585,0.10907351
3586,0.10907351
3587,0.10907351
3588,0.10907351
3589,0.10907351
3590,0.10907351
3591,0.10907351
3592,0.10907351
3593,0.10907351
3594,0.10907351
3595,0.10907351
3596,0.10907351
3597,0.10907351
3598,0.10907351
3599,0.10907351
3600,0.10907351
3601,0.10907351
3602,0.10907351
3603,0.10907351
3604,0.10907351
3605,0.10907351
3606,0.10907351
3607,0.10907351
3608,0.10907351
3609,0.10907351
3610,0.10964933
3611,0.11080355
3612,0.11195776
3613,0.11311198
3614,0.11426619
3615,0.11542041
3616,0.11657462
3617,0.11772884
3618,0.11888306
3619,0.12003727
3620,0.12119149
3621,0.12234571
3622,0.12349992
3623,0.12465414
3624,0.12465543
3625,0.12465543
3626,0.12465543
3627,0.12465543
3628,0.12465543
3629,0.12465543
3630,0.12465543
3631,0.12465543
3632,0.12465543
3633,0.12465543
3634,0.12465543
3635,0.12465543
3636,0.12465543
3637,0.12465543
3638,0.12465543
3639,0.12465543
3640,0.12465543
3641,0.12465543
3642,0.12465543
3643,0.12465543
3644,0.12465543
3645,0.12465543
3646,0.12465543
3647,0.12465543
3648,0.12465543
3649,0.12465543
3650,0.12465543
3651,0.12465543
3652,0.12465543
3653,0.12465543
3654,0.12465543
3655,0.12465543
3656,0.12465543
3657,0.12465543
3658,0.12465543
3659,0.12465543
3660,0.12465543
3661,0.12465543
3662,0.12465543
3663,0.12465543
3664,0.12465543
3665,0.12465543
3666,0.12465543
3667,0.12465543
3668,0.12465543
3669,0.12465543
3670,0.12465543
3671,0.12465543
3672,0.12465543
3673,0.12465543
3674,0.12465543
3675,0.12465543
3676,0.12465543
3677,0.12465543
3678,0.12465543
3679,0.12465543
3680,0.12465543
3681,0.12465543
3682,0.12465543
3683,0.12465543
3684,0.12465543
3685,0.12465543
3686,0.12465543
3687,0.12465543
3688,0.12465543
3689,0.12465543
3690,0.12465543
3691,0.12465543
3692,0.12465543
3693,0.12465543
3694,0.12465543
3695,0.12465543
3696,0.12465543
3697,0.12465543
3698,0.12465543
3699,0.12465543
3700,0.12465543
3701,0.12465543
3702,0.12465543
3703,0.12465543
3704,0.12465543
3705,0.12465543
3706,0.12465543
3707,0.12465543
3708,0.12465543
3709,0.12465543
3710,0.12465543
3711,0.12465543
3712,0.12465543
3713,0.12465543
3714,0.12465543
3715,0.12465543
3716,0.12465543
3717,0.12465543
3718,0.12407962
3719,0.12292539
3720,0.12177118
3721,0.12061697
3722,0.11946274
3723,0.11830853
3724,0.11715432
3725,0.1160001
3726,0.11484588
3727,0.11369167
3728,0.11253745
3729,0.11138323
3730,0.11022902
3731,0.1090748
3732,0.10907351
3733,0.10907351
3734,0.10907351
3735,0.10907351
3736,0.10907351
3737,0.10907351
3738,0.10907351
3739,0.10907351
3740,0.10907351
3741,0.10907351
3742,0.10907351
3743,0.10907351
3744,0.10907351
3745,0.10907351
3746,0.10907351
3747,0.10907351
3748,0.10907351
3749,0.10907351
3750,0.10907351
3751,0.10907351
3752,0.10907351
3753,0.10907351
3754,0.10907351
3755,0.10907351
3756,0.10907351
3757,0.10907351
3758,0.10907351
3759,0.10907351
3760,0.10907351
3761,0.10907351
3762,0.10907351
3763,0.10907351
3764,0.10907351
3765,0.10907351
3766,0.10907351
3767,0.10907351
3768,0.10907351
3769,0.10907351
3770,0.10907351
3771,0.10907351
3772,0.10964933
3773,0.11080355
3774,0.11195776
3775,0.11311198
3776,0.11426619
3777,0.11542041
3778,0.11657462
3779,0.11772884
3780,0.11888306
3781,0.12003727
3782,0.12119149
3783,0.12234571
3784,0.12349992
3785,0.12465414
3786,0.12465543
3787,0.12465543
3788,0.12465543
3789,0.12465543
3790,0.12465543
3791,0.12465543
3792,0.12465543
3793,0.12465543
3794,0.12465543
3795,0.12465543
3796,0.12465543
3797,0.12465543
3798,0.12465543
3799,0.12465543
3800,0.12465543
3801,0.12465543
3802,0.12465543
3803,0.12465543
3804,0.12465543
3805,0.12465543
3806,0.12465543
3807,0.12465543
3808,0.12465543
3809,0.12465543
3810,0.12465543
3811,0.12465543
3812,0.12465543
3813,0.1235025
3814,0.12234829
3815,0.12119407
3816,0.12003986
3817,0.11888564
3818,0.11773142
3819,0.11657721
3820,0.11542299
3821,0.11426877
3822,0.11311456
3823,0.11196034
3824,0.11080612
3825,0.10965191
3826,0.10849769
3827,0.10734347
3828,0.10618926
3829,0.10503504
3830,0.10388082
3831,0.10272661
3832,0.10157239
3833,0.10041817
3834,0.09926395
3835,0.09810974
3836,0.09695552
3837,0.0958013
3838,0.09464709
3839,0.09349287
3840,0.09233865
3841,0.09118443
3842,0.09003022
3843,0.088876
3844,0.08772178
3845,0.08656757
3846,0.08541335
3847,0.08425913
3848,0.08310492
3849,0.08195069
3850,0.08079648
3851,0.07964227
3852,0.07848804
3853,0.07848547
3854,0.07963968
3855,0.0807939
3856,0.08194812
3857,0.08310234
3858,0.08425655
3859,0.08541077
3860,0.08656499
3861,0.0877192
3862,0.08887342
3863,0.09002764
3864,0.09118185
3865,0.09233607
3866,0.09349029
3867,0.0946445
3868,0.09579872
3869,0.09695294
3870,0.09810716
3871,0.09926137
3872,0.10041559
3873,0.10156981
3874,0.10272402
3875,0.10387825
3876,0.10503246
3877,0.10618668
3878,0.1073409
3879,0.10849511
3880,0.11022515
3881,0.11253358
3882,0.11484201
3883,0.11715045
3884,0.11945888
3885,0.12176731
3886,0.12407575
3887,0.12638418
3888,0.12869261
3889,0.13100104
3890,0.13330948
3891,0.13561791
3892,0.13792634
3893,0.14023478
3894,0.1413903
3895,0.14254451
3896,0.14369872
3897,0.14485294
3898,0.14600717
3899,0.14716138
3900,0.1483156
3901,0.14946981
3902,0.15062404
3903,0.15177825
3904,0.15293247
3905,0.15408668
3906,0.15524091
3907,0.15639512
3908,0.15754934
3909,0.15870355
3910,0.15985776
3911,0.161012
3912,0.16216621
3913,0.16332042
3914,0.16447464
3915,0.16562885
3916,0.16678306
3917,0.1679373
3918,0.16909151
3919,0.17024572
3920,0.17139994
3921,0.1702483
3922,0.16909409
3923,0.16793987
3924,0.16678566
3925,0.16563143
3926,0.16447721
3927,0.163323
3928,0.16216879
3929,0.16101457
3930,0.15986034
3931,0.15870613
3932,0.15755191
3933,0.1563977
3934,0.15466766
3935,0.15235923
3936,0.15005079
3937,0.14774236
3938,0.14543392
3939,0.14312549
3940,0.14081705
3941,0.13850862
3942,0.13620019
3943,0.13389175
3944,0.13158332
3945,0.12927487
3946,0.12696645
3947,0.12465801
3948,0.1235025
3949,0.12234829
3950,0.12119407
3951,0.12003986
3952,0.11888564
3953,0.11773142
3954,0.11657721
3955,0.11542299
3956,0.11426877
3957,0.11311456
3958,0.11196034
3959,0.11080612
3960,0.10965191
3961,0.10907351
3962,0.10907351
3963,0.10907351
3964,0.10907351
3965,0.10907351
3966,0.10907351
3967,0.10907351
3968,0.10907351
3969,0.10907351
3970,0.10907351
3971,0.10907351
3972,0.10907351
3973,0.10907351
3974,0.10907351
3975,0.11022644
3976,0.11138065
3977,0.11253487
3978,0.11368909
3979,0.1148433
3980,0.11599752
3981,0.11715174
3982,0.11830595
3983,0.11946017
3984,0.12061438
3985,0.1217686
3986,0.12292282
3987,0.12407703
3988,0.12465543
3989,0.12465543
3990,0.12465543
3991,0.12465543
3992,0.12465543
3993,0.12465543
3994,0.12465543
3995,0.12465543
3996,0.12465543
3997,0.12465543
3998,0.12465543
3999,0.12465543
4000,0.12465543
4001,0.12465543
4002,0.12580836
4003,0.12696257
4004,0.12811679
4005,0.12927102
4006,0.13042523
4007,0.13157944
4008,0.13273366
4009,0.13388787
4010,0.13504209
4011,0.13619632
4012,0.13735053
4013,0.13850474
4014,0.13965896
4015,0.14023736
4016,0.14023736
4017,0.14023736
4018,0.14023736
4019,0.14023736
4020,0.14023736
4021,0.14023736
4022,0.14023736
4023,0.14023736
4024,0.14023736
4025,0.14023736
4026,0.14023736
4027,0.14023736
4028,0.14023736
4029,0.13908443
4030,0.13793021
4031,0.136776
4032,0.13562179
4033,0.13446757
4034,0.13331334
4035,0.13215913
4036,0.13100491
4037,0.1298507
4038,0.12869649
4039,0.12754226
4040,0.12638804
4041,0.12523383
4042,0.12407962
4043,0.12292539
4044,0.12177118
4045,0.12061697
4046,0.11946274
4047,0.11830853
4048,0.11715432
4049,0.1160001
4050,0.11484588
4051,0.11369167
4052,0.11253745
4053,0.11138323
4054,0.11022902
4055,0.1090748
4056,0.10792058
4057,0.10676637
4058,0.10561215
4059,0.10445793
4060,0.10330372
4061,0.10214949
4062,0.10099528
4063,0.09984106
4064,0.09868684
4065,0.09753263
4066,0.09637841
4067,0.09522419
4068,0.09406997
4069,0.09291576
4070,0.09176154
4071,0.09060732
4072,0.08945311
4073,0.08829889
4074,0.08714467
4075,0.08599046
4076,0.08483624
4077,0.08368202
4078,0.08252781
4079,0.08137359
4080,0.08021937
4081,0.07906515
4082,0.07791094
4083,0.07790965
4084,0.07790965
4085,0.07790965
4086,0.07790965
4087,0.07790965
4088,0.07790965
4089,0.07790965
4090,0.07790965
4091,0.07790965
4092,0.07790965
4093,0.07790965
4094,0.07790965
4095,0.07790965
4096,0.07790965
4097,0.07790965
4098,0.07790965
4099,0.07790965
4100,0.07790965
4101,0.07790965
4102,0.07790965
4103,0.07790965
4104,0.07790965
4105,0.07790965
4106,0.07790965
4107,0.07790965
4108,0.07790965
4109,0.07790965
4110,0.07906257
4111,0.0802168
4112,0.08137101
4113,0.08252522
4114,0.08367945
4115,0.08483366
4116,0.08598787
4117,0.0871421
4118,0.08829631
4119,0.08945053
4120,0.09060475
4121,0.09175896
4122,0.09291318
4123,0.0940674
4124,0.09522162
4125,0.09637583
4126,0.09753005
4127,0.09868427
4128,0.09983848
4129,0.1009927
4130,0.10214692
4131,0.10330113
4132,0.10445535
4133,0.10560957
4134,0.10676379
4135,0.107918
4136,0.10907222
4137,0.11022644
4138,0.11138065
4139,0.11253487
4140,0.11368909
4141,0.1148433
4142,0.11599752
4143,0.11715174
4144,0.11830595
4145,0.11946017
4146,0.12061438
4147,0.1217686
4148,0.12292282
4149,0.12407703
4150,0.12523125
4151,0.12638547
4152,0.12753968
4153,0.1286939
4154,0.12984812
4155,0.13100234
4156,0.13215655
4157,0.13331077
4158,0.13446498
4159,0.13561921
4160,0.13677342
4161,0.13792764
4162,0.13908185
4163,0.14023606
4164,0.14023736
4165,0.14023736
4166,0.14023736
4167,0.14023736
4168,0.14023736
4169,0.14023736
4170,0.14023736
4171,0.14023736
4172,0.14023736
4173,0.14023736
4174,0.14023736
4175,0.14023736
4176,0.14023736
4177,0.14081317
4178,0.1419674
4179,0.14312162
4180,0.14427583
4181,0.14543004
4182,0.14658427
4183,0.14773849
4184,0.1488927
4185,0.15004691
4186,0.15120114
4187,0.15235536
4188,0.15350957
4189,0.15466379
4190,0.15581802
4191,0.15466638
4192,0.15351215
4193,0.15235794
4194,0.15120372
4195,0.15004951
4196,0.14889528
4197,0.14774106
4198,0.14658685
4199,0.14543264
4200,0.1442784
4201,0.1431242
4202,0.14196998
4203,0.14081576
4204,0.14081317
4205,0.1419674
4206,0.14312162
4207,0.14427583
4208,0.14543004
4209,0.14658427
4210,0.14773849
4211,0.1488927
4212,0.15004691
4213,0.15120114
4214,0.15235536
4215,0.15350957
4216,0.15466379
4217,0.15581802
4218,0.1558193
4219,0.1558193
4220,0.1558193
4221,0.1558193
4222,0.1558193
4223,0.1558193
4224,0.1558193
4225,0.1558193
4226,0.1558193
4227,0.1558193
4228,0.1558193
4229,0.1558193
4230,0.1558193
4231,0.1558193
4232,0.1558193
4233,0.1558193
4234,0.1558193
4235,0.1558193
4236,0.1558193
4237,0.1558193
4238,0.1558193
4239,0.1558193
4240,0.1558193
4241,0.1558193
4242,0.1558193
4243,0.1558193
4244,0.1558193
4245,0.15466638
4246,0.15351215
4247,0.15235794
4248,0.15120372
4249,0.15004951
4250,0.14889528
4251,0.14774106
4252,0.14658685
4253,0.14543264
4254,0.1442784
4255,0.1431242
4256,0.14196998
4257,0.14081576
4258,0.13966154
4259,0.13850732
4260,0.1373531
4261,0.1361989
4262,0.13504468
4263,0.13389045
4264,0.13273624
4265,0.13158202
4266,0.13042781
4267,0.1292736
4268,0.12811936
4269,0.12696515
4270,0.12581094
4271,0.12465672
4272,0.12465543
4273,0.12465543
4274,0.12465543
4275,0.12465543
4276,0.12465543
4277,0.12465543
4278,0.12465543
4279,0.12465543
4280,0.12465543
4281,0.12465543
4282,0.12465543
4283,0.12465543
4284,0.12465543
4285,0.12407962
4286,0.12292539
4287,0.12177118
4288,0.12061697
4289,0.11946274
4290,0.11830853
4291,0.11715432
4292,0.1160001
4293,0.11484588
4294,0.11369167
4295,0.11253745
4296,0.11138323
4297,0.11022902
4298,0.1090748
4299,0.11022644
4300,0.11138065
4301,0.11253487
4302,0.11368909
4303,0.1148433
4304,0.11599752
4305,0.11715174
4306,0.11830595
4307,0.11946017
4308,0.12061438
4309,0.1217686
4310,0.12292282
4311,0.12407703
4312,0.12523125
4313,0.12638547
4314,0.12753968
4315,0.1286939
4316,0.12984812
4317,0.13100234
4318,0.13215655
4319,0.13331077
4320,0.13446498
4321,0.13561921
4322,0.13677342
4323,0.13792764
4324,0.13908185
4325,0.14023606
4326,0.1413903
4327,0.14254451
4328,0.14369872
4329,0.14485294
4330,0.14600717
4331,0.14716138
4332,0.1483156
4333,0.14946981
4334,0.15062404
4335,0.15177825
4336,0.15293247
4337,0.15408668
4338,0.15524091
4339,0.1558193
4340,0.1558193
4341,0.1558193
4342,0.1558193
4343,0.1558193
4344,0.1558193
4345,0.1558193
4346,0.1558193
4347,0.1558193
4348,0.1558193
4349,0.1558193
4350,0.1558193
4351,0.1558193
4352,0.1558193
4353,0.1558193
4354,0.1558193
4355,0.1558193
4356,0.1558193
4357,0.1558193
4358,0.1558193
4359,0.1558193
4360,0.1558193
4361,0.1558193
4362,0.1558193
4363,0.1558193
4364,0.1558193
4365,0.1558193
4366,0.1558193
4367,0.1558193
4368,0.1558193
4369,0.1558193
4370,0.1558193
4371,0.1558193
4372,0.1558193
4373,0.1558193
4374,0.1558193
4375,0.1558193
4376,0.1558193
4377,0.1558193
4378,0.1558193
4379,0.1558193
4380,0.15466638
4381,0.15351215
4382,0.15235794
4383,0.15120372
4384,0.15004951
4385,0.14889528
4386,0.14774106
4387,0.14658685
4388,0.14543264
4389,0.1442784
4390,0.1431242
4391,0.14196998
4392,0.14081576
4393,0.14023736
4394,0.14023736
4395,0.14023736
4396,0.14023736
4397,0.14023736
4398,0.14023736
4399,0.14023736
4400,0.14023736
4401,0.14023736
4402,0.14023736
4403,0.14023736
4404,0.14023736
4405,0.14023736
4406,0.14023736
4407,0.14023736
4408,0.14023736
4409,0.14023736
4410,0.14023736
4411,0.14023736
4412,0.14023736
4413,0.14023736
4414,0.14023736
4415,0.14023736
4416,0.14023736
4417,0.14023736
4418,0.14023736
4419,0.14023736
4420,0.13908572
4421,0.1367773
4422,0.13446885
4423,0.13216043
4424,0.129852
4425,0.12754355
4426,0.12523513
4427,0.12292669
4428,0.12061825
4429,0.11830983
4430,0.11600139
4431,0.11369295
4432,0.11138453
4433,0.10907609
4434,0.10907351
4435,0.10907351
4436,0.10907351
4437,0.10907351
4438,0.10907351
4439,0.10907351
4440,0.10907351
4441,0.10907351
4442,0.10907351
4443,0.10907351
4444,0.10907351
4445,0.10907351
4446,0.10907351
4447,0.10849769
4448,0.10734347
4449,0.10618926
4450,0.10503504
4451,0.10388082
4452,0.10272661
4453,0.10157239
4454,0.10041817
4455,0.09926395
4456,0.09810974
4457,0.09695552
4458,0.0958013
4459,0.09464709
4460,0.09349287
4461,0.09349158
4462,0.09349158
4463,0.09349158
4464,0.09349158
4465,0.09349158
4466,0.09349158
4467,0.09349158
4468,0.09349158
4469,0.09349158
4470,0.09349158
4471,0.09349158
4472,0.09349158
4473,0.09349158
4474,0.0940674
4475,0.09522162
4476,0.09637583
4477,0.09753005
4478,0.09868427
4479,0.09983848
4480,0.1009927
4481,0.10214692
4482,0.10330113
4483,0.10445535
4484,0.10560957
4485,0.10676379
4486,0.107918
4487,0.10907222
4488,0.11022644
4489,0.11138065
4490,0.11253487
4491,0.11368909
4492,0.1148433
4493,0.11599752
4494,0.11715174
4495,0.11830595
4496,0.11946017
4497,0.12061438
4498,0.1217686
4499,0.12292282
4500,0.12407703
4501,0.12523125
4502,0.12638547
4503,0.12753968
4504,0.1286939
4505,0.12984812
4506,0.13100234
4507,0.13215655
4508,0.13331077
4509,0.13446498
4510,0.13561921
4511,0.13677342
4512,0.13792764
4513,0.13908185
4514,0.14023606
4515,0.14023736
4516,0.14023736
4517,0.14023736
4518,0.14023736
4519,0.14023736
4520,0.14023736
4521,0.14023736
4522,0.14023736
4523,0.14023736
4524,0.14023736
4525,0.14023736
4526,0.14023736
4527,0.14023736
4528,0.14023736
4529,0.14023736
4530,0.14023736
4531,0.14023736
4532,0.14023736
4533,0.14023736
4534,0.14023736
4535,0.14023736
4536,0.14023736
4537,0.14023736
4538,0.14023736
4539,0.14023736
4540,0.14023736
4541,0.14023736
4542,0.1413903
4543,0.14254451
4544,0.14369872
4545,0.14485294
4546,0.14600717
4547,0.14716138
4548,0.1483156
4549,0.14946981
4550,0.15062404
4551,0.15177825
4552,0.15293247
4553,0.15408668
4554,0.15524091
4555,0.1558193
4556,0.1558193
4557,0.1558193
4558,0.1558193
4559,0.1558193
4560,0.1558193
4561,0.1558193
4562,0.1558193
4563,0.1558193
4564,0.1558193
4565,0.1558193
4566,0.1558193
4567,0.1558193
4568,0.1558193
4569,0.1558193
4570,0.1558193
4571,0.1558193
4572,0.1558193
4573,0.1558193
4574,0.1558193
4575,0.1558193
4576,0.1558193
4577,0.1558193
4578,0.1558193
4579,0.1558193
4580,0.1558193
4581,0.1558193
4582,0.1558193
4583,0.1558193
4584,0.1558193
4585,0.1558193
4586,0.1558193
4587,0.1558193
4588,0.1558193
4589,0.1558193
4590,0.1558193
4591,0.1558193
4592,0.1558193
4593,0.1558193
4594,0.1558193
4595,0.1558193
4596,0.15466638
4597,0.15351215
4598,0.15235794
4599,0.15120372
4600,0.15004951
4601,0.14889528
4602,0.14774106
4603,0.14658685
4604,0.14543264
4605,0.1442784
4606,0.1431242
4607,0.14196998
4608,0.14081576
4609,0.14023736
4610,0.14023736
4611,0.14023736
4612,0.14023736
4613,0.14023736
4614,0.14023736
4615,0.14023736
4616,0.14023736
4617,0.14023736
4618,0.14023736
4619,0.14023736
4620,0.14023736
4621,0.14023736
4622,0.14023736
4623,0.14023736
4624,0.14023736
4625,0.14023736
4626,0.14023736
4627,0.14023736
4628,0.14023736
4629,0.14023736
4630,0.14023736
4631,0.14023736
4632,0.14023736
4633,0.14023736
4634,0.14023736
4635,0.14023736
4636,0.13966154
4637,0.13850732
4638,0.1373531
4639,0.1361989
4640,0.13504468
4641,0.13389045
4642,0.13273624
4643,0.13158202
4644,0.13042781
4645,0.1292736
4646,0.12811936
4647,0.12696515
4648,0.12581094
4649,0.12465672
4650,0.12465543
4651,0.12465543
4652,0.12465543
4653,0.12465543
4654,0.12465543
4655,0.12465543
4656,0.12465543
4657,0.12465543
4658,0.12465543
4659,0.12465543
4660,0.12465543
4661,0.12465543
4662,0.12465543
4663,0.12523125
4664,0.12638547
4665,0.12753968
4666,0.1286939
4667,0.12984812
4668,0.13100234
4669,0.13215655
4670,0.13331077
4671,0.13446498
4672,0.13561921
4673,0.13677342
4674,0.13792764
4675,0.13908185
4676,0.14023606
4677,0.14023736
4678,0.14023736
4679,0.14023736
4680,0.14023736
4681,0.14023736
4682,0.14023736
4683,0.14023736
4684,0.14023736
4685,0.14023736
4686,0.14023736
4687,0.14023736
4688,0.14023736
4689,0.14023736
4690,0.14023736
4691,0.14023736
4692,0.14023736
4693,0.14023736
4694,0.14023736
4695,0.14023736
4696,0.14023736
4697,0.14023736
4698,0.14023736
4699,0.14023736
4700,0.14023736
4701,0.14023736
4702,0.14023736
4703,0.14023736
4704,0.13908443
4705,0.13793021
4706,0.136776
4707,0.13562179
4708,0.13446757
4709,0.13331334
4710,0.13215913
4711,0.13100491
4712,0.1298507
4713,0.12869649
4714,0.12754226
4715,0.12638804
4716,0.12523383
4717,0.12407962
4718,0.12292539
4719,0.12177118
4720,0.12061697
4721,0.11946274
4722,0.11830853
4723,0.11715432
4724,0.1160001
4725,0.11484588
4726,0.11369167
4727,0.11253745
4728,0.11138323
4729,0.11022902
4730,0.1090748
4731,0.11022644
4732,0.11138065
4733,0.11253487
4734,0.11368909
4735,0.1148433
4736,0.11599752
4737,0.11715174
4738,0.11830595
4739,0.11946017
4740,0.12061438
4741,0.1217686
4742,0.12292282
4743,0.12407703
4744,0.12523125
4745,0.12638547
4746,0.12753968
4747,0.1286939
4748,0.12984812
4749,0.13100234
4750,0.13215655
4751,0.13331077
4752,0.13446498
4753,0.13561921
4754,0.13677342
4755,0.13792764
4756,0.13908185
4757,0.14023606
4758,0.1413903
4759,0.14254451
4760,0.14369872
4761,0.14485294
4762,0.14600717
4763,0.14716138
4764,0.1483156
4765,0.14946981
4766,0.15062404
4767,0.15177825
4768,0.15293247
4769,0.15408668
4770,0.15524091
4771,0.15524349
4772,0.15408926
4773,0.15293504
4774,0.15178083
4775,0.15062661
4776,0.14947239
4777,0.14831817
4778,0.14716396
4779,0.14600974
4780,0.14485551
4781,0.1437013
4782,0.14254709
4783,0.14139287
4784,0.14023864
4785,0.14023736
4786,0.14023736
4787,0.14023736
4788,0.14023736
4789,0.14023736
4790,0.14023736
4791,0.14023736
4792,0.14023736
4793,0.14023736
4794,0.14023736
4795,0.14023736
4796,0.14023736
4797,0.14023736
4798,0.14023736
4799,0.14023736
4800,0.14023736
4801,0.14023736
4802,0.14023736
4803,0.14023736
4804,0.14023736
4805,0.14023736
4806,0.14023736
4807,0.14023736
4808,0.14023736
4809,0.14023736
4810,0.14023736
4811,0.14023736
4812,0.14023736
4813,0.14023736
4814,0.14023736
4815,0.14023736
4816,0.14023736
4817,0.14023736
4818,0.14023736
4819,0.14023736
4820,0.14023736
4821,0.14023736
4822,0.14023736
4823,0.14023736
4824,0.14023736
4825,0.14023736
4826,0.14023736
4827,0.14023736
4828,0.14023736
4829,0.14023736
4830,0.14023736
4831,0.14023736
4832,0.14023736
4833,0.14023736
4834,0.14023736
4835,0.14023736
4836,0.14023736
4837,0.14023736
4838,0.14023736
4839,0.14023736
4840,0.14023736
4841,0.14023736
4842,0.14023736
4843,0.14023736
4844,0.14023736
4845,0.14023736
4846,0.14023736
4847,0.14023736
4848,0.14023736
4849,0.14023736
4850,0.14023736
4851,0.14023736
4852,0.14023736
4853,0.14023736
4854,0.14023736
4855,0.14023736
4856,0.14023736
4857,0.14023736
4858,0.14023736
4859,0.14023736
4860,0.14023736
4861,0.14023736
4862,0.14023736
4863,0.14023736
4864,0.14023736
4865,0.14023736
4866,0.13908443
4867,0.13793021
4868,0.136776
4869,0.13562179
4870,0.13446757
4871,0.13331334
4872,0.13215913
4873,0.13100491
4874,0.1298507
4875,0.12869649
4876,0.12754226
4877,0.12638804
4878,0.12523383
4879,0.12465543
4880,0.12465543
4881,0.12465543
4882,0.12465543
4883,0.12465543
4884,0.12465543
4885,0.12465543
4886,0.12465543
4887,0.12465543
4888,0.12465543
4889,0.12465543
4890,0.12465543
4891,0.12465543
4892,0.12465543
4893,0.12465543
4894,0.12465543
4895,0.12465543
4896,0.12465543
4897,0.12465543
4898,0.12465543
4899,0.12465543
4900,0.12465543
4901,0.12465543
4902,0.12465543
4903,0.12465543
4904,0.12465543
4905,0.12465543
4906,0.12523125
4907,0.12638547
4908,0.12753968
4909,0.1286939
4910,0.12984812
4911,0.13100234
4912,0.13215655
4913,0.13331077
4914,0.13446498
4915,0.13561921
4916,0.13677342
4917,0.13792764
4918,0.13908185
4919,0.14023606
4920,0.14023736
4921,0.14023736
4922,0.14023736
4923,0.14023736
4924,0.14023736
4925,0.14023736
4926,0.14023736
4927,0.14023736
4928,0.14023736
4929,0.14023736
4930,0.14023736
4931,0.14023736
4932,0.14023736
4933,0.14023736
4934,0.14023736
4935,0.14023736
4936,0.14023736
4937,0.14023736
4938,0.14023736
4939,0.14023736
4940,0.14023736
4941,0.14023736
4942,0.14023736
4943,0.14023736
4944,0.14023736
4945,0.14023736
4946,0.14023736
4947,0.14023736
4948,0.14023736
4949,0.14023736
4950,0.14023736
4951,0.14023736
4952,0.14023736
4953,0.14023736
4954,0.14023736
4955,0.14023736
4956,0.14023736
4957,0.14023736
4958,0.14023736
4959,0.14023736
4960,0.13966154
4961,0.13850732
4962,0.1373531
4963,0.1361989
4964,0.13504468
4965,0.13389045
4966,0.13273624
4967,0.13158202
4968,0.13042781
4969,0.1292736
4970,0.12811936
4971,0.12696515
4972,0.12581094
4973,0.12465672
4974,0.12465543
4975,0.12465543
4976,0.12465543
4977,0.12465543
4978,0.12465543
4979,0.12465543
4980,0.12465543
4981,0.12465543
4982,0.12465543
4983,0.12465543
4984,0.12465543
4985,0.12465543
4986,0.12465543
4987,0.12465543
4988,0.12465543
4989,0.12465543
4990,0.12465543
4991,0.12465543
4992,0.12465543
4993,0.12465543
4994,0.12465543
4995,0.12465543
4996,0.12465543
4997,0.12465543
4998,0.12465543
4999,0.12465543
5000,0.12465543
5001,0.12580836
5002,0.12696257
5003,0.12811679
5004,0.12927102
5005,0.13042523
5006,0.13157944
5007,0.13273366
5008,0.13388787
5009,0.13504209
5010,0.13619632
5011,0.13735053
5012,0.13850474
5013,0.13965896
5014,0.14023736
5015,0.14023736
5016,0.14023736
5017,0.14023736
5018,0.14023736
5019,0.14023736
5020,0.14023736
5021,0.14023736
5022,0.14023736
5023,0.14023736
5024,0.14023736
5025,0.14023736
5026,0.14023736
5027,0.14023736
5028,0.14023736
5029,0.14023736
5030,0.14023736
5031,0.14023736
5032,0.14023736
5033,0.14023736
5034,0.14023736
5035,0.14023736
5036,0.14023736
5037,0.14023736
5038,0.14023736
5039,0.14023736
5040,0.14023736
5041,0.14023736
5042,0.14023736
5043,0.14023736
5044,0.14023736
5045,0.14023736
5046,0.14023736
5047,0.14023736
5048,0.14023736
5049,0.14023736
5050,0.14023736
5051,0.14023736
5052,0.14023736
5053,0.14023736
5054,0.14023736
5055,0.14023736
5056,0.14023736
5057,0.14023736
5058,0.14023736
5059,0.14023736
5060,0.14023736
5061,0.14023736
5062,0.14023736
5063,0.14023736
5064,0.14023736
5065,0.14023736
5066,0.14023736
5067,0.14023736
5068,0.14023736
5069,0.14023736
5070,0.14023736
5071,0.14023736
5072,0.14023736
5073,0.14023736
5074,0.14023736
5075,0.14023736
5076,0.14023736
5077,0.14023736
5078,0.14023736
5079,0.14023736
5080,0.14023736
5081,0.14023736
5082,0.14023736
5083,0.14023736
5084,0.14023736
5085,0.14023736
5086,0.14023736
5087,0.14023736
5088,0.14023736
5089,0.14023736
5090,0.14023736
5091,0.14023736
5092,0.14023736
5093,0.14023736
5094,0.14023736
5095,0.14023736
5096,0.14023736
5097,0.14023736
5098,0.14023736
5099,0.14023736
5100,0.14023736
5101,0.14023736
5102,0.14023736
5103,0.14023736
5104,0.14023736
5105,0.14023736
5106,0.14023736
5107,0.14023736
5108,0.14023736
5109,0.14023736
5110,0.14023736
5111,0.14023736
5112,0.14023736
5113,0.14023736
5114,0.14023736
5115,0.14023736
5116,0.14023736
5117,0.14023736
5118,0.14023736
5119,0.14023736
5120,0.14023736
5121,0.14023736
5122,0.14023736
5123,0.14023736
5124,0.14023736
5125,0.14023736
5126,0.14023736
5127,0.14023736
5128,0.14023736
5129,0.14023736
5130,0.14023736
5131,0.14023736
5132,0.14023736
5133,0.14023736
5134,0.14023736
5135,0.14023736
5136,0.14023736
5137,0.14023736
5138,0.14023736
5139,0.14023736
5140,0.14023736
5141,0.14023736
5142,0.14023736
5143,0.14023736
5144,0.14023736
5145,0.14023736
5146,0.14023736
5147,0.14023736
5148,0.14023736
5149,0.14023736
5150,0.14023736
5151,0.14023736
5152,0.14023736
5153,0.14023736
5154,0.14023736
5155,0.14023736
5156,0.14023736
5157,0.14023736
5158,0.14023736
5159,0.14023736
5160,0.14023736
5161,0.14023736
5162,0.14023736
5163,0.14023736
5164,0.14023736
5165,0.14023736
5166,0.14023736
5167,0.14023736
5168,0.14023736
5169,0.14023736
5170,0.14023736
5171,0.14023736
5172,0.14023736
5173,0.14023736
5174,0.14023736
5175,0.14023736
5176,0.14023736
5177,0.14023736
5178,0.14023736
5179,0.14023736
5180,0.14023736
5181,0.14023736
5182,0.14023736
5183,0.14023736
5184,0.14023736
5185,0.14023736
5186,0.14023736
5187,0.14023736
5188,0.14023736
5189,0.14023736
5190,0.14023736
5191,0.14023736
5192,0.14023736
5193,0.14023736
5194,0.14023736
5195,0.14023736
5196,0.14023736
5197,0.14023736
5198,0.14023736
5199,0.14023736
5200,0.14023736
5201,0.14023736
5202,0.14023736
5203,0.13966154
5204,0.13850732
5205,0.1373531
5206,0.1361989
5207,0.13504468
5208,0.13389045
5209,0.13273624
5210,0.13158202
5211,0.13042781
5212,0.1292736
5213,0.12811936
5214,0.12696515
5215,0.12581094
5216,0.12465672
5217,0.12465543
5218,0.12465543
5219,0.12465543
5220,0.12465543
5221,0.12465543
5222,0.12465543
5223,0.12465543
5224,0.12465543
5225,0.12465543
5226,0.12465543
5227,0.12465543
5228,0.12465543
5229,0.12465543
5230,0.12523125
5231,0.12638547
5232,0.12753968
5233,0.1286939
5234,0.12984812
5235,0.13100234
5236,0.13215655
5237,0.13331077
5238,0.13446498
5239,0.13561921
5240,0.13677342
5241,0.13792764
5242,0.13908185
5243,0.14023606
5244,0.13908443
5245,0.13793021
5246,0.136776
5247,0.13562179
5248,0.13446757
5249,0.13331334
5250,0.13215913
5251,0.13100491
5252,0.1298507
5253,0.12869649
5254,0.12754226
5255,0.12638804
5256,0.12523383
5257,0.12523125
5258,0.12638547
5259,0.12753968
5260,0.1286939
5261,0.12984812
5262,0.13100234
5263,0.13215655
5264,0.13331077
5265,0.13446498
5266,0.13561921
5267,0.13677342
5268,0.13792764
5269,0.13908185
5270,0.14023606
5271,0.14023736
5272,0.14023736
5273,0.14023736
5274,0.14023736
5275,0.14023736
5276,0.14023736
5277,0.14023736
5278,0.14023736
5279,0.14023736
5280,0.14023736
5281,0.14023736
5282,0.14023736
5283,0.14023736
5284,0.14023736
5285,0.14023736
5286,0.14023736
5287,0.14023736
5288,0.14023736
5289,0.14023736
5290,0.14023736
5291,0.14023736
5292,0.14023736
5293,0.14023736
5294,0.14023736
5295,0.14023736
5296,0.14023736
5297,0.14023736
5298,0.14023736
5299,0.14023736
5300,0.14023736
5301,0.14023736
5302,0.14023736
5303,0.14023736
5304,0.14023736
5305,0.14023736
5306,0.14023736
5307,0.14023736
5308,0.14023736
5309,0.14023736
5310,0.14023736
5311,0.14023736
5312,0.14023736
5313,0.14023736
5314,0.14023736
5315,0.14023736
5316,0.14023736
5317,0.14023736
5318,0.14023736
5319,0.14023736
5320,0.14023736
5321,0.14023736
5322,0.14023736
5323,0.14023736
5324,0.14023736
5325,0.14023736
5326,0.14023736
5327,0.14023736
5328,0.14023736
5329,0.14023736
5330,0.14023736
5331,0.14023736
5332,0.14023736
5333,0.14023736
5334,0.14023736
5335,0.14023736
5336,0.14023736
5337,0.14023736
5338,0.14023736
5339,0.14023736
5340,0.14023736
5341,0.14023736
5342,0.14023736
5343,0.14023736
5344,0.14023736
5345,0.14023736
5346,0.14023736
5347,0.14023736
5348,0.14023736
5349,0.14023736
5350,0.14023736
5351,0.14023736
5352,0.14023736
5353,0.14023736
5354,0.14023736
5355,0.14023736
5356,0.14023736
5357,0.14023736
5358,0.14023736
5359,0.14023736
5360,0.14023736
5361,0.14023736
5362,0.14023736
5363,0.14023736
5364,0.14023736
5365,0.14023736
5366,0.14023736
5367,0.14023736
5368,0.14023736
5369,0.14023736
5370,0.14023736
5371,0.14023736
5372,0.14023736
5373,0.14023736
5374,0.14023736
5375,0.14023736
5376,0.14023736
5377,0.14023736
5378,0.14023736
5379,0.14023736
5380,0.14023736
5381,0.14023736
5382,0.14023736
5383,0.14023736
5384,0.14023736
5385,0.14023736
5386,0.14023736
5387,0.14023736
5388,0.14023736
5389,0.14023736
5390,0.14023736
5391,0.14023736
5392,0.14023736
5393,0.14023736
5394,0.14023736
5395,0.14023736
5396,0.14023736
5397,0.14023736
5398,0.14023736
5399,0.14023736
5400,0.14023736
5401,0.14023736
5402,0.14023736
5403,0.14023736
5404,0.14023736
5405,0.14023736
5406,0.14023736
5407,0.14023736
5408,0.14023736
5409,0.14023736
5410,0.14023736
5411,0.14023736
5412,0.14023736
5413,0.14023736
5414,0.14023736
5415,0.14023736
5416,0.14023736
5417,0.14023736
5418,0.14023736
5419,0.14023736
5420,0.14023736
5421,0.14023736
5422,0.14023736
5423,0.14023736
5424,0.14023736
5425,0.14023736
5426,0.14023736
5427,0.14023736
5428,0.14023736
5429,0.14023736
5430,0.14023736
5431,0.14023736
5432,0.14023736
5433,0.14023736
5434,0.14023736
5435,0.14023736
5436,0.14023736
5437,0.14023736
5438,0.14023736
5439,0.14023736
5440,0.14023736
5441,0.14023736
5442,0.14023736
5443,0.14023736
5444,0.14023736
5445,0.14023736
5446,0.14023736
5447,0.14023736
5448,0.14023736
5449,0.14023736
5450,0.14023736
5451,0.14023736
5452,0.14023736
5453,0.14023736
5454,0.14023736
5455,0.14023736
5456,0.14023736
5457,0.14023736
5458,0.14023736
5459,0.14023736
5460,0.14023736
5461,0.14023736
5462,0.14023736
5463,0.14023736
5464,0.14023736
5465,0.14023736
5466,0.14023736
5467,0.14023736
5468,0.14023736
5469,0.14023736
5470,0.14023736
5471,0.14023736
5472,0.14023736
5473,0.14023736
5474,0.14023736
5475,0.14023736
5476,0.14023736
5477,0.14023736
5478,0.14023736
5479,0.14023736
5480,0.14023736
5481,0.14023736
5482,0.14023736
5483,0.14023736
5484,0.14023736
5485,0.14023736
5486,0.14023736
5487,0.14023736
5488,0.14023736
5489,0.14023736
5490,0.14023736
5491,0.14023736
5492,0.14023736
5493,0.14023736
5494,0.14023736
5495,0.14023736
5496,0.14023736
5497,0.14023736
5498,0.14023736
5499,0.14023736
5500,0.14023736
5501,0.14023736
5502,0.14023736
5503,0.14023736
5504,0.14023736
5505,0.14023736
5506,0.14023736
5507,0.14023736
5508,0.14023736
5509,0.14023736
5510,0.14023736
5511,0.14023736
5512,0.14023736
5513,0.14023736
5514,0.14023736
5515,0.14023736
5516,0.14023736
5517,0.14023736
5518,0.14023736
5519,0.14023736
5520,0.14023736
5521,0.14023736
5522,0.14023736
5523,0.14023736
5524,0.14023736
5525,0.14023736
5526,0.14023736
5527,0.14023736
5528,0.14023736
5529,0.14023736
5530,0.14023736
5531,0.14023736
5532,0.14023736
5533,0.14023736
5534,0.14023736
5535,0.14023736
5536,0.14023736
5537,0.14023736
5538,0.14023736
5539,0.14023736
5540,0.14023736
5541,0.13908443
5542,0.13793021
5543,0.136776
5544,0.13562179
5545,0.13446757
5546,0.13331334
5547,0.13215913
5548,0.13100491
5549,0.1298507
5550,0.12869649
5551,0.12754226
5552,0.12638804
5553,0.12523383
5554,0.12465543
5555,0.12465543
5556,0.12465543
5557,0.12465543
5558,0.12465543
5559,0.12465543
5560,0.12465543
5561,0.12465543
5562,0.12465543
5563,0.12465543
5564,0.12465543
5565,0.12465543
5566,0.12465543
5567,0.12465543
5568,0.12465543
5569,0.12465543
5570,0.12465543
5571,0.12465543
5572,0.12465543
5573,0.12465543
5574,0.12465543
5575,0.12465543
5576,0.12465543
5577,0.12465543
5578,0.12465543
5579,0.12465543
5580,0.12465543
5581,0.12523125
5582,0.12638547
5583,0.12753968
5584,0.1286939
5585,0.12984812
5586,0.13100234
5587,0.13215655
5588,0.13331077
5589,0.13446498
5590,0.13561921
5591,0.13677342
5592,0.13792764
5593,0.13908185
5594,0.14023606
5595,0.14023736
5596,0.14023736
5597,0.14023736
5598,0.14023736
5599,0.14023736
5600,0.14023736
5601,0.14023736
5602,0.14023736
5603,0.14023736
5604,0.14023736
5605,0.14023736
5606,0.14023736
5607,0.14023736
5608,0.14023736
5609,0.14023736
5610,0.14023736
5611,0.14023736
5612,0.14023736
5613,0.14023736
5614,0.14023736
5615,0.14023736
5616,0.14023736
5617,0.14023736
5618,0.14023736
5619,0.14023736
5620,0.14023736
5621,0.14023736
5622,0.14023736
5623,0.14023736
5624,0.14023736
5625,0.14023736
5626,0.14023736
5627,0.14023736
5628,0.14023736
5629,0.14023736
5630,0.14023736
5631,0.14023736
5632,0.14023736
5633,0.14023736
5634,0.14023736
5635,0.14023736
5636,0.14023736
5637,0.14023736
5638,0.14023736
5639,0.14023736
5640,0.14023736
5641,0.14023736
5642,0.14023736
5643,0.14023736
5644,0.14023736
5645,0.14023736
5646,0.14023736
5647,0.14023736
5648,0.14023736
5649,0.14023736
5650,0.14023736
5651,0.14023736
5652,0.14023736
5653,0.14023736
5654,0.14023736
5655,0.14023736
5656,0.14023736
5657,0.14023736
5658,0.14023736
5659,0.14023736
5660,0.14023736
5661,0.14023736
5662,0.14023736
5663,0.14023736
5664,0.14023736
5665,0.14023736
5666,0.14023736
5667,0.14023736
5668,0.14023736
5669,0.14023736
5670,0.14023736
5671,0.14023736
5672,0.14023736
5673,0.14023736
5674,0.14023736
5675,0.14023736
5676,0.14023736
5677,0.14023736
5678,0.14023736
5679,0.14023736
5680,0.14023736
5681,0.14023736
5682,0.14023736
5683,0.14023736
5684,0.14023736
5685,0.14023736
5686,0.14023736
5687,0.14023736
5688,0.14023736
5689,0.14023736
5690,0.14023736
5691,0.14023736
5692,0.14023736
5693,0.14023736
5694,0.14023736
5695,0.14023736
5696,0.14023736
5697,0.14023736
5698,0.14023736
5699,0.14023736
5700,0.14023736
5701,0.14023736
5702,0.14023736
5703,0.14023736
5704,0.14023736
5705,0.14023736
5706,0.14023736
5707,0.14023736
5708,0.14023736
5709,0.14023736
5710,0.14023736
5711,0.14023736
5712,0.14023736
5713,0.14023736
5714,0.14023736
5715,0.14023736
5716,0.14023736
5717,0.14023736
5718,0.14023736
5719,0.14023736
5720,0.14023736
5721,0.14023736
5722,0.14023736
5723,0.14023736
5724,0.14023736
5725,0.14023736
5726,0.14023736
5727,0.14023736
5728,0.14023736
5729,0.14023736
5730,0.13908443
5731,0.13793021
5732,0.136776
5733,0.13562179
5734,0.13446757
5735,0.13331334
5736,0.13215913
5737,0.13100491
5738,0.1298507
5739,0.12869649
5740,0.12754226
5741,0.12638804
5742,0.12523383
5743,0.12465543
5744,0.12465543
5745,0.12465543
5746,0.12465543
5747,0.12465543
5748,0.12465543
5749,0.12465543
5750,0.12465543
5751,0.12465543
5752,0.12465543
5753,0.12465543
5754,0.12465543
5755,0.12465543
5756,0.12465543
5757,0.12465543
5758,0.12465543
5759,0.12465543
5760,0.12465543
5761,0.12465543
5762,0.12465543
5763,0.12465543
5764,0.12465543
5765,0.12465543
5766,0.12465543
5767,0.12465543
5768,0.12465543
5769,0.12465543
5770,0.12465543
5771,0.12465543
5772,0.12465543
5773,0.12465543
5774,0.12465543
5775,0.12465543
5776,0.12465543
5777,0.12465543
5778,0.12465543
5779,0.12465543
5780,0.12465543
5781,0.12465543
5782,0.12465543
5783,0.12465543
5784,0.12465543
5785,0.12465543
5786,0.12465543
5787,0.12465543
5788,0.12465543
5789,0.12465543
5790,0.12465543
5791,0.12465543
5792,0.12465543
5793,0.12465543
5794,0.12465543
5795,0.12465543
5796,0.12465543
5797,0.12523125
5798,0.12638547
5799,0.12753968
5800,0.1286939
5801,0.12984812
5802,0.13100234
5803,0.13215655
5804,0.13331077
5805,0.13446498
5806,0.13561921
5807,0.13677342
5808,0.13792764
5809,0.13908185
5810,0.14023606
5811,0.13908443
5812,0.13793021
5813,0.136776
5814,0.13562179
5815,0.13446757
5816,0.13331334
5817,0.13215913
5818,0.13100491
5819,0.1298507
5820,0.12869649
5821,0.12754226
5822,0.12638804
5823,0.12523383
5824,0.12523125
5825,0.12638547
5826,0.12753968
5827,0.1286939
5828,0.12984812
5829,0.13100234
5830,0.13215655
5831,0.13331077
5832,0.13446498
5833,0.13561921
5834,0.13677342
5835,0.13792764
5836,0.13908185
5837,0.14023606
5838,0.14023736
5839,0.14023736
5840,0.14023736
5841,0.14023736
5842,0.14023736
5843,0.14023736
5844,0.14023736
5845,0.14023736
5846,0.14023736
5847,0.14023736
5848,0.14023736
5849,0.14023736
5850,0.14023736
5851,0.13966154
5852,0.13850732
5853,0.1373531
5854,0.1361989
5855,0.13504468
5856,0.13389045
5857,0.13273624
5858,0.13158202
5859,0.13042781
5860,0.1292736
5861,0.12811936
5862,0.12696515
5863,0.12581094
5864,0.12465672
5865,0.12465543
5866,0.12465543
5867,0.12465543
5868,0.12465543
5869,0.12465543
5870,0.12465543
5871,0.12465543
5872,0.12465543
5873,0.12465543
5874,0.12465543
5875,0.12465543
5876,0.12465543
5877,0.12465543
5878,0.12465543
5879,0.12465543
5880,0.12465543
5881,0.12465543
5882,0.12465543
5883,0.12465543
5884,0.12465543
5885,0.12465543
5886,0.12465543
5887,0.12465543
5888,0.12465543
5889,0.12465543
5890,0.12465543
5891,0.12465543
5892,0.12465543
5893,0.12465543
5894,0.12465543
5895,0.12465543
5896,0.12465543
5897,0.12465543
5898,0.12465543
5899,0.12465543
5900,0.12465543
5901,0.12465543
5902,0.12465543
5903,0.12465543
5904,0.12465543
5905,0.12465543
5906,0.12465543
5907,0.12465543
5908,0.12465543
5909,0.12465543
5910,0.12465543
5911,0.12465543
5912,0.12465543
5913,0.12465543
5914,0.12465543
5915,0.12465543
5916,0.12465543
5917,0.12465543
5918,0.12465543
5919,0.12580836
5920,0.12696257
5921,0.12811679
5922,0.12927102
5923,0.13042523
5924,0.13157944
5925,0.13273366
5926,0.13388787
5927,0.13504209
5928,0.13619632
5929,0.13735053
5930,0.13850474
5931,0.13965896
5932,0.14023736
5933,0.14023736
5934,0.14023736
5935,0.14023736
5936,0.14023736
5937,0.14023736
5938,0.14023736
5939,0.14023736
5940,0.14023736
5941,0.14023736
5942,0.14023736
5943,0.14023736
5944,0.14023736
5945,0.14023736
5946,0.14023736
5947,0.14023736
5948,0.14023736
5949,0.14023736
5950,0.14023736
5951,0.14023736
5952,0.14023736
5953,0.14023736
5954,0.14023736
5955,0.14023736
5956,0.14023736
5957,0.14023736
5958,0.14023736
5959,0.14023736
5960,0.14023736
5961,0.14023736
5962,0.14023736
5963,0.14023736
5964,0.14023736
5965,0.14023736
5966,0.14023736
5967,0.14023736
5968,0.14023736
5969,0.14023736
5970,0.14023736
5971,0.14023736
5972,0.14023736
5973,0.14023736
5974,0.14023736
5975,0.14023736
5976,0.14023736
5977,0.14023736
5978,0.14023736
5979,0.14023736
5980,0.14023736
5981,0.14023736
5982,0.14023736
5983,0.14023736
5984,0.14023736
5985,0.14023736
5986,0.14023736
5987,0.14023736
5988,0.14023736
5989,0.14023736
5990,0.14023736
5991,0.14023736
5992,0.14023736
5993,0.14023736
5994,0.14023736
5995,0.14023736
5996,0.14023736
5997,0.14023736
5998,0.14023736
5999,0.14023736
6000,0.14023736
6001,0.14023736
6002,0.14023736
6003,0.14023736
6004,0.14023736
6005,0.14023736
6006,0.14023736
6007,0.14023736
6008,0.14023736
6009,0.14023736
6010,0.14023736
6011,0.14023736
6012,0.14023736
6013,0.14023736
6014,0.14023736
6015,0.14023736
6016,0.14023736
6017,0.14023736
6018,0.14023736
6019,0.14023736
6020,0.14023736
6021,0.14023736
6022,0.14023736
6023,0.14023736
6024,0.14023736
6025,0.14023736
6026,0.14023736
6027,0.14023736
6028,0.14023736
6029,0.14023736
6030,0.14023736
6031,0.14023736
6032,0.14023736
6033,0.14023736
6034,0.14023736
6035,0.14023736
6036,0.14023736
6037,0.14023736
6038,0.14023736
6039,0.14023736
6040,0.14023736
6041,0.14023736
6042,0.14023736
6043,0.14023736
6044,0.14023736
6045,0.14023736
6046,0.14023736
6047,0.14023736
6048,0.14023736
6049,0.14023736
6050,0.14023736
6051,0.14023736
6052,0.14023736
6053,0.14023736
6054,0.14023736
6055,0.14023736
6056,0.14023736
6057,0.14023736
6058,0.14023736
6059,0.14023736
6060,0.14023736
6061,0.14023736
6062,0.14023736
6063,0.14023736
6064,0.14023736
6065,0.14023736
6066,0.14023736
6067,0.14023736
6068,0.14023736
6069,0.14023736
6070,0.14023736
6071,0.14023736
6072,0.14023736
6073,0.14023736
6074,0.14023736
6075,0.14023736
6076,0.14023736
6077,0.14023736
6078,0.14023736
6079,0.14023736
6080,0.14023736
6081,0.14023736
6082,0.14023736
6083,0.14023736
6084,0.14023736
6085,0.14023736
6086,0.14023736
6087,0.14023736
6088,0.14023736
6089,0.14023736
6090,0.14023736
6091,0.14023736
6092,0.14023736
6093,0.14023736
6094,0.14023736
6095,0.14023736
6096,0.14023736
6097,0.14023736
6098,0.14023736
6099,0.14023736
6100,0.14023736
6101,0.14023736
6102,0.14023736
6103,0.14023736
6104,0.14023736
6105,0.14023736
6106,0.14023736
6107,0.14023736
6108,0.14023736
6109,0.14023736
6110,0.14023736
6111,0.14023736
6112,0.14023736
6113,0.14023736
6114,0.14023736
6115,0.14023736
6116,0.14023736
6117,0.14023736
6118,0.14023736
6119,0.14023736
6120,0.14023736
6121,0.13966154
6122,0.13850732
6123,0.1373531
6124,0.1361989
6125,0.13504468
6126,0.13389045
6127,0.13273624
6128,0.13158202
6129,0.13042781
6130,0.1292736
6131,0.12811936
6132,0.12696515
6133,0.12581094
6134,0.12465672
6135,0.12465543
6136,0.12465543
6137,0.12465543
6138,0.12465543
6139,0.12465543
6140,0.12465543
6141,0.12465543
6142,0.12465543
6143,0.12465543
6144,0.12465543
6145,0.12465543
6146,0.12465543
6147,0.12465543
6148,0.12465543
6149,0.12465543
6150,0.12465543
6151,0.12465543
6152,0.12465543
6153,0.12465543
6154,0.12465543
6155,0.12465543
6156,0.12465543
6157,0.12465543
6158,0.12465543
6159,0.12465543
6160,0.12465543
6161,0.12465543
6162,0.12465543
6163,0.12465543
6164,0.12465543
6165,0.12465543
6166,0.12465543
6167,0.12465543
6168,0.12465543
6169,0.12465543
6170,0.12465543
6171,0.12465543
6172,0.12465543
6173,0.12465543
6174,0.12465543
6175,0.12523125
6176,0.12638547
6177,0.12753968
6178,0.1286939
6179,0.12984812
6180,0.13100234
6181,0.13215655
6182,0.13331077
6183,0.13446498
6184,0.13561921
6185,0.13677342
6186,0.13792764
6187,0.13908185
6188,0.14023606
6189,0.14023736
6190,0.14023736
6191,0.14023736
6192,0.14023736
6193,0.14023736
6194,0.14023736
6195,0.14023736
6196,0.14023736
6197,0.14023736
6198,0.14023736
6199,0.14023736
6200,0.14023736
6201,0.14023736
6202,0.14023736
6203,0.14023736
6204,0.14023736
6205,0.14023736
6206,0.14023736
6207,0.14023736
6208,0.14023736
6209,0.14023736
6210,0.14023736
6211,0.14023736
6212,0.14023736
6213,0.14023736
6214,0.14023736
6215,0.14023736
6216,0.14023736
6217,0.14023736
6218,0.14023736
6219,0.14023736
6220,0.14023736
6221,0.14023736
6222,0.14023736
6223,0.14023736
6224,0.14023736
6225,0.14023736
6226,0.14023736
6227,0.14023736
6228,0.14023736
6229,0.14023736
6230,0.14023736
6231,0.14023736
6232,0.14023736
6233,0.14023736
6234,0.14023736
6235,0.14023736
6236,0.14023736
6237,0.14023736
6238,0.14023736
6239,0.14023736
6240,0.14023736
6241,0.14023736
6242,0.14023736
6243,0.14023736
6244,0.14023736
6245,0.14023736
6246,0.14023736
6247,0.14023736
6248,0.14023736
6249,0.14023736
6250,0.14023736
6251,0.14023736
6252,0.14023736
6253,0.14023736
6254,0.14023736
6255,0.14023736
6256,0.14023736
6257,0.14023736
6258,0.14023736
6259,0.14023736
6260,0.14023736
6261,0.14023736
6262,0.14023736
6263,0.14023736
6264,0.14023736
6265,0.14023736
6266,0.14023736
6267,0.14023736
6268,0.14023736
6269,0.14023736
6270,0.14023736
6271,0.14023736
6272,0.14023736
6273,0.14023736
6274,0.14023736
6275,0.14023736
6276,0.14023736
6277,0.14023736
6278,0.14023736
6279,0.14023736
6280,0.14023736
6281,0.14023736
6282,0.14023736
6283,0.14023736
6284,0.14023736
6285,0.14023736
6286,0.14023736
6287,0.14023736
6288,0.14023736
6289,0.14023736
6290,0.14023736
6291,0.14023736
6292,0.14023736
6293,0.14023736
6294,0.14023736
6295,0.14023736
6296,0.14023736
6297,0.14023736
6298,0.14023736
6299,0.14023736
6300,0.14023736
6301,0.14023736
6302,0.14023736
6303,0.14023736
6304,0.14023736
6305,0.14023736
6306,0.14023736
6307,0.14023736
6308,0.14023736
6309,0.14023736
6310,0.14023736
6311,0.14023736
6312,0.14023736
6313,0.14023736
6314,0.14023736
6315,0.14023736
6316,0.14023736
6317,0.14023736
6318,0.14023736
6319,0.14023736
6320,0.14023736
6321,0.14023736
6322,0.14023736
6323,0.14023736
6324,0.14023736
6325,0.14023736
6326,0.14023736
6327,0.14023736
6328,0.14023736
6329,0.14023736
6330,0.14023736
6331,0.14023736
6332,0.14023736
6333,0.14023736
6334,0.14023736
6335,0.14023736
6336,0.14023736
6337,0.14023736
6338,0.14023736
6339,0.14023736
6340,0.14023736
6341,0.14023736
6342,0.14023736
6343,0.14023736
6344,0.14023736
6345,0.14023736
6346,0.14023736
6347,0.14023736
6348,0.14023736
6349,0.14023736
6350,0.14023736
6351,0.14023736
6352,0.14023736
6353,0.14023736
6354,0.14023736
6355,0.14023736
6356,0.14023736
6357,0.14023736
6358,0.14023736
6359,0.14023736
6360,0.14023736
6361,0.14023736
6362,0.14023736
6363,0.14023736
6364,0.13966154
6365,0.13850732
6366,0.1373531
6367,0.1361989
6368,0.13504468
6369,0.13389045
6370,0.13273624
6371,0.13158202
6372,0.13042781
6373,0.1292736
6374,0.12811936
6375,0.12696515
6376,0.12581094
6377,0.12465672
6378,0.12465543
6379,0.12465543
6380,0.12465543
6381,0.12465543
6382,0.12465543
6383,0.12465543
6384,0.12465543
6385,0.12465543
6386,0.12465543
6387,0.12465543
6388,0.12465543
6389,0.12465543
6390,0.12465543
6391,0.12465543
6392,0.12465543
6393,0.12465543
6394,0.12465543
6395,0.12465543
6396,0.12465543
6397,0.12465543
6398,0.12465543
6399,0.12465543
6400,0.12465543
6401,0.12465543
6402,0.12465543
6403,0.12465543
6404,0.12465543
6405,0.12465543
6406,0.12465543
6407,0.12465543
6408,0.12465543
6409,0.12465543
6410,0.12465543
6411,0.12465543
6412,0.12465543
6413,0.12465543
6414,0.12465543
6415,0.12465543
6416,0.12465543
6417,0.12465543
6418,0.12523125
6419,0.12638547
6420,0.12753968
6421,0.1286939
6422,0.12984812
6423,0.13100234
6424,0.13215655
6425,0.13331077
6426,0.13446498
6427,0.13561921
6428,0.13677342
6429,0.13792764
6430,0.13908185
6431,0.14023606
6432,0.14023736
6433,0.14023736
6434,0.14023736
6435,0.14023736
6436,0.14023736
6437,0.14023736
6438,0.14023736
6439,0.14023736
6440,0.14023736
6441,0.14023736
6442,0.14023736
6443,0.14023736
6444,0.14023736
6445,0.14023736
6446,0.14023736
6447,0.14023736
6448,0.14023736
6449,0.14023736
6450,0.14023736
6451,0.14023736
6452,0.14023736
6453,0.14023736
6454,0.14023736
6455,0.14023736
6456,0.14023736
6457,0.14023736
6458,0.14023736
6459,0.14023736
6460,0.14023736
6461,0.14023736
6462,0.14023736
6463,0.14023736
6464,0.14023736
6465,0.14023736
6466,0.14023736
6467,0.14023736
6468,0.14023736
6469,0.14023736
6470,0.14023736
6471,0.14023736
6472,0.14023736
6473,0.14023736
6474,0.14023736
6475,0.14023736
6476,0.14023736
6477,0.14023736
6478,0.14023736
6479,0.14023736
6480,0.14023736
6481,0.14023736
6482,0.14023736
6483,0.14023736
6484,0.14023736
6485,0.14023736
6486,0.14023736
6487,0.14023736
6488,0.14023736
6489,0.14023736
6490,0.14023736
6491,0.14023736
6492,0.14023736
6493,0.14023736
6494,0.14023736
6495,0.14023736
6496,0.14023736
6497,0.14023736
6498,0.14023736
6499,0.14023736
6500,0.14023736
6501,0.14023736
6502,0.14023736
6503,0.14023736
6504,0.14023736
6505,0.14023736
6506,0.14023736
6507,0.14023736
6508,0.14023736
6509,0.14023736
6510,0.14023736
6511,0.14023736
6512,0.14023736
6513,0.14023736
6514,0.14023736
6515,0.14023736
6516,0.14023736
6517,0.14023736
6518,0.14023736
6519,0.14023736
6520,0.14023736
6521,0.14023736
6522,0.14023736
6523,0.14023736
6524,0.14023736
6525,0.14023736
6526,0.14023736
6527,0.14023736
6528,0.14023736
6529,0.14023736
6530,0.14023736
6531,0.14023736
6532,0.14023736
6533,0.14023736
6534,0.14023736
6535,0.14023736
6536,0.14023736
6537,0.14023736
6538,0.14023736
6539,0.14023736
6540,0.14023736
6541,0.14023736
6542,0.14023736
6543,0.14023736
6544,0.14023736
6545,0.14023736
6546,0.14023736
6547,0.14023736
6548,0.14023736
6549,0.14023736
6550,0.14023736
6551,0.14023736
6552,0.14023736
6553,0.14023736
6554,0.14023736
6555,0.14023736
6556,0.14023736
6557,0.14023736
6558,0.14023736
6559,0.14023736
6560,0.14023736
6561,0.14023736
6562,0.14023736
6563,0.14023736
6564,0.14023736
6565,0.14023736
6566,0.14023736
6567,0.14023736
6568,0.14023736
6569,0.14023736
6570,0.14023736
6571,0.14023736
6572,0.14023736
6573,0.14023736
6574,0.14023736
6575,0.14023736
6576,0.14023736
6577,0.14023736
6578,0.14023736
6579,0.14023736
6580,0.14023736
6581,0.14023736
6582,0.14023736
6583,0.14023736
6584,0.14023736
6585,0.14023736
6586,0.14023736
6587,0.14023736
6588,0.14023736
6589,0.14023736
6590,0.14023736
6591,0.14023736
6592,0.14023736
6593,0.14023736
6594,0.14023736
6595,0.14023736
6596,0.14023736
6597,0.14023736
6598,0.14023736
6599,0.14023736
6600,0.14023736
6601,0.14023736
6602,0.14023736
6603,0.14023736
6604,0.14023736
6605,0.14023736
6606,0.14023736
6607,0.14023736
6608,0.14023736
6609,0.14023736
6610,0.14023736
6611,0.14023736
6612,0.14023736
6613,0.14023736
6614,0.14023736
6615,0.14023736
6616,0.14023736
6617,0.14023736
6618,0.14023736
6619,0.14023736
6620,0.14023736
6621,0.14023736
6622,0.14023736
6623,0.14023736
6624,0.14023736
6625,0.14023736
6626,0.14023736
6627,0.14023736
6628,0.14023736
6629,0.14023736
6630,0.14023736
6631,0.14023736
6632,0.14023736
6633,0.14023736
6634,0.14023736
6635,0.14023736
6636,0.14023736
6637,0.14023736
6638,0.14023736
6639,0.14023736
6640,0.14023736
6641,0.14023736
6642,0.14023736
6643,0.14023736
6644,0.14023736
6645,0.14023736
6646,0.14023736
6647,0.14023736
6648,0.14023736
6649,0.14023736
6650,0.14023736
6651,0.14023736
6652,0.14023736
6653,0.14023736
6654,0.14023736
6655,0.14023736
6656,0.14023736
6657,0.14023736
6658,0.14023736
6659,0.14023736
6660,0.14023736
6661,0.14023736
6662,0.14023736
6663,0.14023736
6664,0.14023736
6665,0.14023736
6666,0.14023736
6667,0.14023736
6668,0.14023736
6669,0.14023736
6670,0.14023736
6671,0.14023736
6672,0.14023736
6673,0.14023736
6674,0.14023736
6675,0.14023736
6676,0.14023736
6677,0.14023736
6678,0.14023736
6679,0.14023736
6680,0.14023736
6681,0.14023736
6682,0.14023736
6683,0.14023736
6684,0.14023736
6685,0.14023736
6686,0.14023736
6687,0.14023736
6688,0.14023736
6689,0.14023736
6690,0.14023736
6691,0.14023736
6692,0.14023736
6693,0.14023736
6694,0.14023736
6695,0.14023736
6696,0.14023736
6697,0.14023736
6698,0.14023736
6699,0.14023736
6700,0.14023736
6701,0.14023736
6702,0.13908443
6703,0.13793021
6704,0.136776
6705,0.13562179
6706,0.13446757
6707,0.13331334
6708,0.13215913
6709,0.13100491
6710,0.1298507
6711,0.12869649
6712,0.12754226
6713,0.12638804
6714,0.12523383
6715,0.12465543
6716,0.12465543
6717,0.12465543
6718,0.12465543
6719,0.12465543
6720,0.12465543
6721,0.12465543
6722,0.12465543
6723,0.12465543
6724,0.12465543
6725,0.12465543
6726,0.12465543
6727,0.12465543
6728,0.12465543
6729,0.12465543
6730,0.12465543
6731,0.12465543
6732,0.12465543
6733,0.12465543
6734,0.12465543
6735,0.12465543
6736,0.12465543
6737,0.12465543
6738,0.12465543
6739,0.12465543
6740,0.12465543
6741,0.12465543
6742,0.12523125
6743,0.12638547
6744,0.12753968
6745,0.1286939
6746,0.12984812
6747,0.13100234
6748,0.13215655
6749,0.13331077
6750,0.13446498
6751,0.13561921
6752,0.13677342
6753,0.13792764
6754,0.13908185
6755,0.14023606
6756,0.14023736
6757,0.14023736
6758,0.14023736
6759,0.14023736
6760,0.14023736
6761,0.14023736
6762,0.14023736
6763,0.14023736
6764,0.14023736
6765,0.14023736
6766,0.14023736
6767,0.14023736
6768,0.14023736
6769,0.14023736
6770,0.14023736
6771,0.14023736
6772,0.14023736
6773,0.14023736
6774,0.14023736
6775,0.14023736
6776,0.14023736
6777,0.14023736
6778,0.14023736
6779,0.14023736
6780,0.14023736
6781,0.14023736
6782,0.14023736
6783,0.14023736
6784,0.14023736
6785,0.14023736
6786,0.14023736
6787,0.14023736
6788,0.14023736
6789,0.14023736
6790,0.14023736
6791,0.14023736
6792,0.14023736
6793,0.14023736
6794,0.14023736
6795,0.14023736
6796,0.14023736
6797,0.14023736
6798,0.14023736
6799,0.14023736
6800,0.14023736
6801,0.14023736
6802,0.14023736
6803,0.14023736
6804,0.14023736
6805,0.14023736
6806,0.14023736
6807,0.14023736
6808,0.14023736
6809,0.14023736
6810,0.14023736
6811,0.14023736
6812,0.14023736
6813,0.14023736
6814,0.14023736
6815,0.14023736
6816,0.14023736
6817,0.14023736
6818,0.14023736
6819,0.14023736
6820,0.14023736
6821,0.14023736
6822,0.14023736
6823,0.14023736
6824,0.14023736
6825,0.14023736
6826,0.14023736
6827,0.14023736
6828,0.14023736
6829,0.14023736
6830,0.14023736
6831,0.14023736
6832,0.14023736
6833,0.14023736
6834,0.14023736
6835,0.14023736
6836,0.14023736
6837,0.14023736
6838,0.14023736
6839,0.14023736
6840,0.14023736
6841,0.14023736
6842,0.14023736
6843,0.14023736
6844,0.14023736
6845,0.14023736
6846,0.14023736
6847,0.14023736
6848,0.14023736
6849,0.14023736
6850,0.14023736
6851,0.14023736
6852,0.14023736
6853,0.14023736
6854,0.14023736
6855,0.14023736
6856,0.14023736
6857,0.14023736
6858,0.14023736
6859,0.14023736
6860,0.14023736
6861,0.14023736
6862,0.14023736
6863,0.14023736
6864,0.14023736
6865,0.14023736
6866,0.14023736
6867,0.14023736
6868,0.14023736
6869,0.14023736
6870,0.14023736
6871,0.14023736
6872,0.14023736
6873,0.14023736
6874,0.14023736
6875,0.14023736
6876,0.14023736
6877,0.14023736
6878,0.14023736
6879,0.14023736
6880,0.14023736
6881,0.14023736
6882,0.14023736
6883,0.14023736
6884,0.14023736
6885,0.14023736
6886,0.14023736
6887,0.14023736
6888,0.14023736
6889,0.14023736
6890,0.14023736
6891,0.14023736
6892,0.14023736
6893,0.14023736
6894,0.14023736
6895,0.14023736
6896,0.14023736
6897,0.14023736
6898,0.14023736
6899,0.14023736
6900,0.14023736
6901,0.14023736
6902,0.14023736
6903,0.14023736
6904,0.14023736
6905,0.14023736
6906,0.14023736
6907,0.14023736
6908,0.14023736
6909,0.14023736
6910,0.14023736
6911,0.14023736
6912,0.14023736
6913,0.14023736
6914,0.14023736
6915,0.14023736
6916,0.14023736
6917,0.14023736
6918,0.14023736
6919,0.14023736
6920,0.14023736
6921,0.14023736
6922,0.14023736
6923,0.14023736
6924,0.14023736
6925,0.14023736
6926,0.14023736
6927,0.14023736
6928,0.14023736
6929,0.14023736
6930,0.14023736
6931,0.14023736
6932,0.14023736
6933,0.14023736
6934,0.14023736
6935,0.14023736
6936,0.14023736
6937,0.14023736
6938,0.14023736
6939,0.14023736
6940,0.14023736
6941,0.14023736
6942,0.14023736
6943,0.14023736
6944,0.14023736
6945,0.14023736
6946,0.14023736
6947,0.14023736
6948,0.14023736
6949,0.14023736
6950,0.14023736
6951,0.14023736
6952,0.14023736
6953,0.14023736
6954,0.14023736
6955,0.14023736
6956,0.14023736
6957,0.14023736
6958,0.14023736
6959,0.14023736
6960,0.14023736
6961,0.14023736
6962,0.14023736
6963,0.14023736
6964,0.14023736
6965,0.14023736
6966,0.14023736
6967,0.14023736
6968,0.14023736
6969,0.14023736
6970,0.14023736
6971,0.14023736
6972,0.14023736
6973,0.14023736
6974,0.14023736
6975,0.14023736
6976,0.14023736
6977,0.14023736
6978,0.14023736
6979,0.14023736
6980,0.14023736
6981,0.14023736
6982,0.14023736
6983,0.14023736
6984,0.14023736
6985,0.14023736
6986,0.14023736
6987,0.14023736
6988,0.14023736
6989,0.14023736
6990,0.14023736
6991,0.14023736
6992,0.14023736
6993,0.14023736
6994,0.14023736
6995,0.14023736
6996,0.14023736
6997,0.14023736
6998,0.14023736
6999,0.14023736
7000,0.14023736
7001,0.14023736
7002,0.14023736
7003,0.14023736
7004,0.14023736
7005,0.14023736
7006,0.14023736
7007,0.14023736
7008,0.14023736
7009,0.14023736
7010,0.14023736
7011,0.14023736
7012,0.14023736
7013,0.14023736
7014,0.14023736
7015,0.14023736
7016,0.14023736
7017,0.14023736
7018,0.14023736
7019,0.14023736
7020,0.14023736
7021,0.14023736
7022,0.14023736
7023,0.14023736
7024,0.14023736
7025,0.14023736
7026,0.13908443
7027,0.13793021
7028,0.136776
7029,0.13562179
7030,0.13446757
7031,0.13331334
7032,0.13215913
7033,0.13100491
7034,0.1298507
7035,0.12869649
7036,0.12754226
7037,0.12638804
7038,0.12523383
7039,0.12523125
7040,0.12638547
7041,0.12753968
7042,0.1286939
7043,0.12984812
7044,0.13100234
7045,0.13215655
7046,0.13331077
7047,0.13446498
7048,0.13561921
7049,0.13677342
7050,0.13792764
7051,0.13908185
7052,0.14023606
7053,0.14023736
7054,0.14023736
7055,0.14023736
7056,0.14023736
7057,0.14023736
7058,0.14023736
7059,0.14023736
7060,0.14023736
7061,0.14023736
7062,0.14023736
7063,0.14023736
7064,0.14023736
7065,0.14023736
7066,0.14023736
7067,0.14023736
7068,0.14023736
7069,0.14023736
7070,0.14023736
7071,0.14023736
7072,0.14023736
7073,0.14023736
7074,0.14023736
7075,0.14023736
7076,0.14023736
7077,0.14023736
7078,0.14023736
7079,0.14023736
7080,0.14023736
7081,0.14023736
7082,0.14023736
7083,0.14023736
7084,0.14023736
7085,0.14023736
7086,0.14023736
7087,0.14023736
7088,0.14023736
7089,0.14023736
7090,0.14023736
7091,0.14023736
7092,0.14023736
7093,0.14023736
7094,0.14023736
7095,0.14023736
7096,0.14023736
7097,0.14023736
7098,0.14023736
7099,0.14023736
7100,0.14023736
7101,0.14023736
7102,0.14023736
7103,0.14023736
7104,0.14023736
7105,0.14023736
7106,0.14023736
7107,0.14023736
7108,0.14023736
7109,0.14023736
7110,0.14023736
7111,0.14023736
7112,0.14023736
7113,0.14023736
7114,0.14023736
7115,0.14023736
7116,0.14023736
7117,0.14023736
7118,0.14023736
7119,0.14023736
7120,0.14023736
7121,0.14023736
7122,0.14023736
7123,0.14023736
7124,0.14023736
7125,0.14023736
7126,0.14023736
7127,0.14023736
7128,0.14023736
7129,0.14023736
7130,0.14023736
7131,0.14023736
7132,0.14023736
7133,0.14023736
7134,0.14023736
7135,0.14023736
7136,0.14023736
7137,0.14023736
7138,0.14023736
7139,0.14023736
7140,0.14023736
7141,0.14023736
7142,0.14023736
7143,0.14023736
7144,0.14023736
7145,0.14023736
7146,0.14023736
